# Created by:        SpecsLab Prodigy, Version 4.60.2-r85849 
#
# XY-Serializer Export Settings:
#   Comment Prefix:           #
#   Output meta data:         yes
#   Energy Axis:              Binding Energy
#   Count Rate:               Counts per Second
#   Separate Scan Data:       no
#   Separate Channel Data:    no
#   External Channel Data:    yes
#   Transmission Function:    no
#   ErrorBar:                 no
#   Operation Results:        yes
#   Time Zone Format:         UTC
#
# Group:             Spectrum Group
#
# Region:            Ba3d
# Acquisition Date:  09/02/22 08:50:09 UTC
# Analysis Method:   XPS
# Analyzer:          Phoibos 100 R6
# Analyzer Lens:     LargeArea:1.5kV
# Analyzer Slit:     1:0.2x20\B:open
# Scan Mode:         FixedAnalyzerTransmission
# Curves/Scan:       1
# Values/Curve:      121
# Dwell Time:        0.8
# Excitation Energy: 1486.61
# Binding Energy:    789
# Pass Energy:       30
# Bias Voltage:      90
# Detector Voltage:  2600
# Eff. Workfunction: 4.309
# Source:            X-Ray Dummy
# Comment:           
#
# Cycle: 0
# Number of Scans: 2
#
# Cycle: 0, Curve: 0
# Acquisition Date: 09/02/22 08:50:09 UTC
#
# ColumnLabels: energy counts/s
#
789  2050.625
788.9  2009.375
788.8  1932.5
788.7  2010.625
788.6  1956.875
788.5  2086.875
788.4  2031.875
788.3  2066.875
788.2  1963.125
788.1  2020
788  2048.75
787.9  2121.875
787.8  2088.125
787.7  2063.125
787.6  2103.75
787.5  2083.125
787.4  2123.75
787.3  2100
787.2  2183.125
787.1  2118.125
787  2169.375
786.9  2173.125
786.8  2220.625
786.7  2263.75
786.6  2268.75
786.5  2388.125
786.4  2384.375
786.3  2435.625
786.2  2520
786.1  2631.25
786  2737.5
785.9  2909.375
785.8  2891.25
785.7  3000
785.6  3228.125
785.5  3388.125
785.4  3466.25
785.3  3722.5
785.2  3896.25
785.1  4028.125
785  4036.875
784.9  4303.125
784.8  4429.375
784.7  4507.5
784.6  4590.625
784.5  4511.875
784.4  4623.75
784.3  4634.375
784.2  4600
784.1  4537.5
784  4469.375
783.9  4266.25
783.8  4143.125
783.7  3979.375
783.6  3781.875
783.5  3737.5
783.4  3510
783.3  3345
783.2  3147.5
783.1  3015.625
783  2834.375
782.9  2751.875
782.8  2670
782.7  2488.125
782.6  2538.75
782.5  2406.25
782.4  2391.875
782.3  2301.25
782.2  2306.875
782.1  2235
782  2236.25
781.9  2218.125
781.8  2195.625
781.7  2167.5
781.6  2185.625
781.5  2209.375
781.4  2119.375
781.3  2159.375
781.2  2160.625
781.1  2148.125
781  2069.375
780.9  2061.25
780.8  2073.75
780.7  2074.375
780.6  1999.375
780.5  2093.125
780.4  1954.375
780.3  1974.375
780.2  1981.875
780.1  1890.625
780  1926.25
779.9  1936.25
779.8  1981.875
779.7  1938.75
779.6  1920
779.5  1882.5
779.4  1886.875
779.3  1873.125
779.2  1898.125
779.1  1864.375
779  1863.75
778.9  1892.5
778.8  1772.5
778.7  1929.375
778.6  1848.125
778.5  1897.5
778.4  1816.25
778.3  1808.125
778.2  1771.25
778.1  1836.875
778  1851.25
777.9  1818.125
777.8  1782.5
777.7  1802.5
777.6  1848.125
777.5  1804.375
777.4  1750.625
777.3  1836.875
777.2  1741.875
777.1  1856.875
777  1785

# Region:            C1s
# Acquisition Date:  09/02/22 09:51:34 UTC
# Analysis Method:   XPS
# Analyzer:          Phoibos 100 R6
# Analyzer Lens:     LargeArea:1.5kV
# Analyzer Slit:     1:0.2x20\B:open
# Scan Mode:         FixedAnalyzerTransmission
# Curves/Scan:       1
# Values/Curve:      151
# Dwell Time:        0.8
# Excitation Energy: 1486.61
# Binding Energy:    295
# Pass Energy:       30
# Bias Voltage:      90
# Detector Voltage:  2600
# Eff. Workfunction: 4.309
# Source:            X-Ray Dummy
# Comment:           
#
# Cycle: 0
# Number of Scans: 13
#
# Cycle: 0, Curve: 0
# Acquisition Date: 09/02/22 09:51:34 UTC
#
# ColumnLabels: energy counts/s
#
295  642.01923
294.9  630.57692
294.8  636.34615
294.7  632.21154
294.6  642.98077
294.5  640.76923
294.4  637.40385
294.3  622.98077
294.2  642.11538
294.1  630.48077
294  645.19231
293.9  626.05769
293.8  627.5
293.7  645.09615
293.6  644.42308
293.5  642.5
293.4  655
293.3  633.55769
293.2  627.30769
293.1  647.5
293  631.82692
292.9  651.34615
292.8  657.21154
292.7  662.69231
292.6  639.32692
292.5  652.78846
292.4  660.19231
292.3  644.32692
292.2  653.36538
292.1  656.63462
292  665.86538
291.9  652.78846
291.8  668.65385
291.7  646.25
291.6  665
291.5  667.11538
291.4  676.34615
291.3  676.25
291.2  686.53846
291.1  681.15385
291  684.32692
290.9  691.82692
290.8  705.67308
290.7  713.36538
290.6  722.01923
290.5  716.82692
290.4  740.86538
290.3  734.51923
290.2  743.07692
290.1  750.67308
290  756.34615
289.9  758.55769
289.8  760.38462
289.7  760.48077
289.6  773.65385
289.5  783.94231
289.4  792.21154
289.3  781.73077
289.2  794.80769
289.1  788.36538
289  785.76923
288.9  803.07692
288.8  814.90385
288.7  817.5
288.6  814.13462
288.5  820.86538
288.4  821.63462
288.3  798.94231
288.2  812.88462
288.1  796.15385
288  821.25
287.9  791.73077
287.8  803.26923
287.7  785.76923
287.6  760.86538
287.5  778.65385
287.4  763.46154
287.3  746.34615
287.2  749.80769
287.1  735.38462
287  719.03846
286.9  721.82692
286.8  717.5
286.7  682.98077
286.6  677.69231
286.5  694.42308
286.4  677.98077
286.3  674.23077
286.2  657.30769
286.1  665.09615
286  661.34615
285.9  654.71154
285.8  655.28846
285.7  662.40385
285.6  667.11538
285.5  674.13462
285.4  649.90385
285.3  651.44231
285.2  649.51923
285.1  653.65385
285  646.44231
284.9  641.34615
284.8  650.19231
284.7  643.55769
284.6  636.15385
284.5  634.03846
284.4  642.11538
284.3  638.75
284.2  627.88462
284.1  637.5
284  636.34615
283.9  646.82692
283.8  631.73077
283.7  635
283.6  640.57692
283.5  639.42308
283.4  627.30769
283.3  646.53846
283.2  623.65385
283.1  637.01923
283  643.65385
282.9  631.92308
282.8  645.28846
282.7  628.84615
282.6  630
282.5  625.09615
282.4  640.28846
282.3  635.28846
282.2  616.15385
282.1  626.82692
282  629.80769
281.9  630.96154
281.8  639.71154
281.7  637.78846
281.6  637.59615
281.5  630.76923
281.4  651.92308
281.3  617.98077
281.2  618.75
281.1  627.30769
281  625.76923
280.9  635.28846
280.8  619.23077
280.7  625.67308
280.6  630
280.5  627.98077
280.4  630.67308
280.3  635.38462
280.2  640.48077
280.1  628.94231
280  634.80769

# Region:            overview
# Acquisition Date:  09/02/22 08:41:41 UTC
# Analysis Method:   XPS
# Analyzer:          Phoibos 100 R6
# Analyzer Lens:     MediumArea:1.5kV
# Analyzer Slit:     1:0.2x20\B:open
# Scan Mode:         FixedAnalyzerTransmission
# Curves/Scan:       1
# Values/Curve:      1205
# Dwell Time:        0.2
# Excitation Energy: 1486.61
# Binding Energy:    1200
# Pass Energy:       50
# Bias Voltage:      90
# Detector Voltage:  2600
# Eff. Workfunction: 4.309
# Source:            X-Ray Dummy
# Comment:           
#
# Cycle: 0
# Number of Scans: 1
#
# Cycle: 0, Curve: 0
# Acquisition Date: 09/02/22 08:41:41 UTC
#
# ColumnLabels: energy counts/s
#
1200  3045
1199  2925
1198  3185
1197  3150
1196  3235
1195  3115
1194  3405
1193  3030
1192  3170
1191  3285
1190  3210
1189  3155
1188  3130
1187  3145
1186  2810
1185  2890
1184  2980
1183  2985
1182  2945
1181  3220
1180  2985
1179  2990
1178  2985
1177  2845
1176  3010
1175  3160
1174  2835
1173  2935
1172  3115
1171  2780
1170  2850
1169  2815
1168  2655
1167  3075
1166  2930
1165  3000
1164  2905
1163  2760
1162  2780
1161  2675
1160  2815
1159  2990
1158  2860
1157  2845
1156  2835
1155  2695
1154  2845
1153  2845
1152  2320
1151  2735
1150  2710
1149  2960
1148  2840
1147  2890
1146  2695
1145  2855
1144  2945
1143  2760
1142  2810
1141  2850
1140  3000
1139  2800
1138  2705
1137  2785
1136  2755
1135  2710
1134  2695
1133  2675
1132  2785
1131  2640
1130  2530
1129  2810
1128  2550
1127  2585
1126  2820
1125  2750
1124  2625
1123  2510
1122  2775
1121  2700
1120  2725
1119  2705
1118  2610
1117  2730
1116  2670
1115  2740
1114  2605
1113  2755
1112  2530
1111  2650
1110  2715
1109  2565
1108  2760
1107  2935
1106  2525
1105  2725
1104  2610
1103  2460
1102  2645
1101  2700
1100  2490
1099  2695
1098  2790
1097  2490
1096  2595
1095  2465
1094  2620
1093  2425
1092  2765
1091  2415
1090  2710
1089  2515
1088  2735
1087  2480
1086  2575
1085  2415
1084  2490
1083  2500
1082  2610
1081  2670
1080  2330
1079  2460
1078  2620
1077  2685
1076  2765
1075  2570
1074  2550
1073  2710
1072  2800
1071  2745
1070  2575
1069  2755
1068  2845
1067  2895
1066  2955
1065  3160
1064  2880
1063  2765
1062  2580
1061  2660
1060  2350
1059  2530
1058  2670
1057  2625
1056  2600
1055  2455
1054  2520
1053  2420
1052  2560
1051  2290
1050  2560
1049  2415
1048  2295
1047  2400
1046  2320
1045  2465
1044  2480
1043  2295
1042  2510
1041  2505
1040  2535
1039  2530
1038  2560
1037  2540
1036  2545
1035  2475
1034  2615
1033  2545
1032  2390
1031  2505
1030  2530
1029  2460
1028  2630
1027  2605
1026  2610
1025  2445
1024  2455
1023  2490
1022  2505
1021  2720
1020  2445
1019  2460
1018  2565
1017  2465
1016  2340
1015  2405
1014  2275
1013  2685
1012  2665
1011  2325
1010  2410
1009  2265
1008  2535
1007  2630
1006  2550
1005  2615
1004  2475
1003  2555
1002  2590
1001  2290
1000  2425
999  2385
998  2365
997  2360
996  2410
995  2180
994  2525
993  2235
992  2285
991  2185
990  2350
989  2080
988  2280
987  2455
986  2565
985  2570
984  2535
983  2615
982  2680
981  2565
980  2375
979  2325
978  2130
977  1945
976  2055
975  1780
974  1805
973  1805
972  1615
971  1650
970  1625
969  1855
968  1575
967  1475
966  1545
965  1645
964  1645
963  1445
962  1670
961  1495
960  1410
959  1535
958  1600
957  1585
956  1505
955  1580
954  1520
953  1420
952  1510
951  1630
950  1675
949  1460
948  1455
947  1675
946  1490
945  1585
944  1540
943  1540
942  1500
941  1630
940  1565
939  1445
938  1595
937  1590
936  1545
935  1580
934  1610
933  1590
932  1700
931  1705
930  1740
929  1600
928  1605
927  1705
926  1710
925  1790
924  1655
923  1660
922  1675
921  1650
920  1795
919  1595
918  1905
917  1625
916  1770
915  1785
914  1740
913  1640
912  1700
911  1915
910  1955
909  2010
908  1930
907  1980
906  1920
905  1935
904  2120
903  2055
902  1625
901  1830
900  1835
899  1685
898  1760
897  1770
896  1970
895  1875
894  1930
893  1595
892  1605
891  1570
890  1680
889  1725
888  1385
887  1485
886  1450
885  1400
884  1485
883  1460
882  1375
881  1510
880  1445
879  1495
878  1450
877  1370
876  1420
875  1445
874  1395
873  1495
872  1280
871  1380
870  1505
869  1425
868  1475
867  1450
866  1580
865  1305
864  1380
863  1365
862  1445
861  1340
860  1475
859  1280
858  1370
857  1390
856  1535
855  1400
854  1400
853  1420
852  1480
851  1565
850  1415
849  1560
848  1620
847  1470
846  1530
845  1495
844  1560
843  1480
842  1460
841  1535
840  1490
839  1500
838  1655
837  1540
836  1585
835  1460
834  1620
833  1505
832  1535
831  1560
830  1490
829  1650
828  1545
827  1745
826  1470
825  1635
824  1530
823  1405
822  1570
821  1645
820  1545
819  1505
818  1535
817  1660
816  1615
815  1650
814  1540
813  1525
812  1530
811  1650
810  1675
809  1725
808  1660
807  1685
806  1550
805  1555
804  1815
803  1670
802  1760
801  2095
800  2955
799  2625
798  2195
797  1760
796  1555
795  1570
794  1665
793  1535
792  1585
791  1420
790  1685
789  1665
788  1605
787  1445
786  2065
785  3170
784  3595
783  2680
782  1860
781  1680
780  1450
779  1480
778  1425
777  1500
776  1360
775  1435
774  1420
773  1690
772  1415
771  1360
770  1370
769  1280
768  1420
767  1365
766  1290
765  1360
764  1330
763  1330
762  1270
761  1265
760  1430
759  1320
758  1425
757  1485
756  1405
755  1610
754  1275
753  1350
752  1230
751  1365
750  1355
749  1440
748  1400
747  1330
746  1280
745  1395
744  1355
743  1170
742  1245
741  1315
740  1360
739  1410
738  1320
737  1365
736  1230
735  1515
734  1375
733  1295
732  1315
731  1355
730  1335
729  1435
728  1495
727  1415
726  1330
725  1360
724  1210
723  1420
722  1415
721  1535
720  1420
719  1350
718  1345
717  1490
716  1560
715  1525
714  1345
713  1565
712  1380
711  1345
710  1390
709  1345
708  1310
707  1335
706  1445
705  1455
704  1430
703  1450
702  1455
701  1495
700  1420
699  1565
698  1330
697  1420
696  1380
695  1495
694  1330
693  1430
692  1405
691  1585
690  1370
689  1460
688  1425
687  1360
686  1310
685  1395
684  1405
683  1320
682  1275
681  1310
680  1440
679  1575
678  1340
677  1505
676  1545
675  1435
674  1440
673  1290
672  1520
671  1540
670  1460
669  1405
668  1500
667  1425
666  1350
665  1500
664  1405
663  1380
662  1415
661  1530
660  1375
659  1410
658  1435
657  1440
656  1425
655  1455
654  1480
653  1500
652  1570
651  1375
650  1490
649  1525
648  1400
647  1500
646  1445
645  1435
644  1490
643  1490
642  1525
641  1445
640  1420
639  1475
638  1415
637  1545
636  1430
635  1560
634  1355
633  1480
632  1685
631  1275
630  1485
629  1595
628  1515
627  1535
626  1325
625  1540
624  1595
623  1400
622  1555
621  1425
620  1480
619  1555
618  1365
617  1635
616  1700
615  1420
614  1515
613  1505
612  1580
611  1625
610  1395
609  1550
608  1605
607  1500
606  1675
605  1575
604  1585
603  1610
602  1640
601  1660
600  1500
599  1510
598  1680
597  1585
596  1575
595  1515
594  1545
593  1620
592  1650
591  1555
590  1605
589  1605
588  1640
587  1640
586  1535
585  1645
584  1685
583  1730
582  1585
581  1630
580  1660
579  1505
578  1680
577  1550
576  1715
575  1460
574  1735
573  1450
572  1495
571  1570
570  1665
569  1430
568  1590
567  1540
566  1610
565  1735
564  1600
563  1655
562  1900
561  1705
560  1730
559  1820
558  2080
557  1920
556  1705
555  1435
554  1700
553  1420
552  1545
551  1505
550  1465
549  1390
548  1380
547  1250
546  1165
545  975
544  995
543  1060
542  1075
541  835
540  1010
539  1465
538  2445
537  4970
536  6475
535  4095
534  1745
533  1240
532  920
531  830
530  845
529  890
528  1080
527  1180
526  1210
525  1125
524  920
523  795
522  790
521  900
520  815
519  885
518  795
517  815
516  835
515  820
514  790
513  735
512  715
511  760
510  855
509  800
508  775
507  780
506  795
505  855
504  770
503  805
502  825
501  740
500  635
499  740
498  795
497  720
496  770
495  745
494  770
493  870
492  760
491  875
490  920
489  795
488  675
487  960
486  765
485  745
484  805
483  710
482  760
481  775
480  745
479  785
478  820
477  810
476  625
475  730
474  725
473  780
472  875
471  755
470  800
469  755
468  715
467  730
466  845
465  825
464  730
463  795
462  735
461  770
460  805
459  655
458  890
457  650
456  725
455  740
454  745
453  810
452  685
451  865
450  700
449  695
448  745
447  830
446  665
445  750
444  740
443  625
442  660
441  745
440  655
439  875
438  885
437  835
436  670
435  720
434  775
433  710
432  730
431  810
430  820
429  790
428  760
427  765
426  945
425  755
424  675
423  725
422  770
421  760
420  870
419  750
418  680
417  820
416  815
415  710
414  795
413  860
412  780
411  780
410  830
409  735
408  790
407  770
406  795
405  720
404  820
403  730
402  865
401  830
400  825
399  790
398  760
397  785
396  885
395  775
394  720
393  850
392  820
391  745
390  780
389  815
388  785
387  720
386  770
385  750
384  775
383  750
382  800
381  830
380  845
379  870
378  785
377  740
376  725
375  705
374  715
373  770
372  845
371  700
370  705
369  695
368  875
367  745
366  770
365  755
364  870
363  800
362  700
361  825
360  730
359  870
358  840
357  735
356  740
355  790
354  755
353  765
352  840
351  725
350  850
349  840
348  805
347  790
346  820
345  775
344  770
343  760
342  795
341  895
340  730
339  710
338  785
337  740
336  805
335  780
334  840
333  815
332  750
331  760
330  785
329  715
328  760
327  790
326  780
325  750
324  775
323  655
322  765
321  810
320  610
319  860
318  860
317  825
316  800
315  745
314  740
313  850
312  845
311  825
310  775
309  875
308  805
307  675
306  905
305  800
304  720
303  730
302  660
301  755
300  800
299  885
298  805
297  840
296  875
295  795
294  875
293  960
292  815
291  845
290  1070
289  1070
288  1060
287  1045
286  750
285  880
284  775
283  870
282  875
281  830
280  825
279  705
278  775
277  805
276  745
275  950
274  1025
273  975
272  875
271  825
270  890
269  840
268  825
267  670
266  800
265  760
264  825
263  770
262  770
261  805
260  825
259  900
258  800
257  900
256  825
255  870
254  730
253  825
252  735
251  855
250  885
249  825
248  890
247  870
246  760
245  850
244  865
243  890
242  875
241  775
240  790
239  705
238  800
237  865
236  865
235  825
234  835
233  855
232  800
231  920
230  820
229  875
228  890
227  770
226  775
225  710
224  760
223  780
222  830
221  815
220  875
219  695
218  865
217  815
216  795
215  795
214  850
213  705
212  705
211  695
210  855
209  805
208  895
207  815
206  840
205  755
204  910
203  955
202  975
201  955
200  860
199  800
198  775
197  855
196  855
195  775
194  830
193  885
192  820
191  865
190  680
189  850
188  890
187  790
186  760
185  835
184  970
183  1030
182  980
181  880
180  910
179  795
178  850
177  875
176  805
175  790
174  635
173  680
172  790
171  845
170  820
169  770
168  815
167  615
166  675
165  660
164  640
163  700
162  670
161  760
160  1125
159  1375
158  1695
157  1450
156  1265
155  845
154  880
153  575
152  695
151  620
150  740
149  640
148  700
147  660
146  725
145  755
144  640
143  670
142  615
141  645
140  535
139  570
138  475
137  595
136  570
135  500
134  695
133  630
132  600
131  720
130  685
129  685
128  635
127  815
126  695
125  660
124  545
123  570
122  590
121  580
120  545
119  530
118  540
117  515
116  530
115  560
114  525
113  485
112  435
111  530
110  560
109  820
108  1275
107  1720
106  1390
105  815
104  640
103  555
102  440
101  485
100  390
99  505
98  590
97  980
96  690
95  890
94  905
93  685
92  500
91  475
90  420
89  490
88  450
87  500
86  495
85  385
84  425
83  545
82  415
81  420
80  380
79  465
78  390
77  425
76  375
75  525
74  435
73  450
72  500
71  465
70  475
69  420
68  555
67  505
66  415
65  380
64  450
63  395
62  445
61  410
60  540
59  460
58  385
57  515
56  445
55  505
54  450
53  495
52  470
51  465
50  525
49  420
48  485
47  505
46  390
45  490
44  435
43  380
42  525
41  445
40  360
39  365
38  515
37  375
36  470
35  435
34  415
33  480
32  440
31  665
30  620
29  630
28  570
27  495
26  405
25  410
24  520
23  485
22  455
21  375
20  425
19  485
18  350
17  465
16  445
15  400
14  360
13  390
12  420
11  465
10  490
9  460
8  415
7  430
6  325
5  415
4  335
3  330
2  295
1  340
-2.2737368e-013  350
-1  275
-2  340
-3  340
-4  310

# Region:            Cl2p
# Acquisition Date:  09/02/22 08:53:42 UTC
# Analysis Method:   XPS
# Analyzer:          Phoibos 100 R6
# Analyzer Lens:     LargeArea:1.5kV
# Analyzer Slit:     1:0.2x20\B:open
# Scan Mode:         FixedAnalyzerTransmission
# Curves/Scan:       1
# Values/Curve:      111
# Dwell Time:        0.8
# Excitation Energy: 1486.61
# Binding Energy:    207
# Pass Energy:       30
# Bias Voltage:      90
# Detector Voltage:  2600
# Eff. Workfunction: 4.309
# Source:            X-Ray Dummy
# Comment:           
#
# Cycle: 0
# Number of Scans: 2
#
# Cycle: 0, Curve: 0
# Acquisition Date: 09/02/22 08:53:42 UTC
#
# ColumnLabels: energy counts/s
#
207  572.5
206.9  561.875
206.8  588.125
206.7  593.75
206.6  582.5
206.5  558.75
206.4  579.375
206.3  572.5
206.2  581.25
206.1  567.5
206  595
205.9  603.75
205.8  608.125
205.7  616.25
205.6  594.375
205.5  575
205.4  587.5
205.3  606.25
205.2  597.5
205.1  636.25
205  634.375
204.9  610.625
204.8  633.75
204.7  665.625
204.6  626.875
204.5  661.875
204.4  689.375
204.3  702.5
204.2  686.25
204.1  645
204  742.5
203.9  688.125
203.8  732.5
203.7  734.375
203.6  718.125
203.5  741.25
203.4  730.625
203.3  738.125
203.2  776.25
203.1  763.125
203  762.5
202.9  767.5
202.8  751.25
202.7  766.875
202.6  793.125
202.5  785
202.4  803.75
202.3  765
202.2  808.75
202.1  746.25
202  766.875
201.9  761.25
201.8  751.875
201.7  780
201.6  760
201.5  741.875
201.4  728.75
201.3  747.5
201.2  684.375
201.1  721.25
201  704.375
200.9  641.25
200.8  655
200.7  638.125
200.6  593.125
200.5  583.125
200.4  611.25
200.3  586.875
200.2  613.75
200.1  638.75
200  609.375
199.9  611.25
199.8  579.375
199.7  594.375
199.6  571.25
199.5  563.125
199.4  545
199.3  569.375
199.2  578.125
199.1  620.625
199  585.625
198.9  566.875
198.8  563.75
198.7  594.375
198.6  591.875
198.5  543.125
198.4  577.5
198.3  588.75
198.2  588.125
198.1  534.375
198  588.75
197.9  558.75
197.8  576.875
197.7  553.125
197.6  565
197.5  557.5
197.4  581.875
197.3  598.125
197.2  575.625
197.1  615
197  581.25
196.9  588.125
196.8  579.375
196.7  567.5
196.6  587.5
196.5  573.125
196.4  595
196.3  578.75
196.2  578.75
196.1  587.5
196  558.125

# Region:            O1s
# Acquisition Date:  09/02/22 08:55:37 UTC
# Analysis Method:   XPS
# Analyzer:          Phoibos 100 R6
# Analyzer Lens:     LargeArea:1.5kV
# Analyzer Slit:     1:0.2x20\B:open
# Scan Mode:         FixedAnalyzerTransmission
# Curves/Scan:       1
# Values/Curve:      141
# Dwell Time:        0.8
# Excitation Energy: 1486.61
# Binding Energy:    541
# Pass Energy:       30
# Bias Voltage:      90
# Detector Voltage:  2600
# Eff. Workfunction: 4.309
# Source:            X-Ray Dummy
# Comment:           
#
# Cycle: 0
# Number of Scans: 2
#
# Cycle: 0, Curve: 0
# Acquisition Date: 09/02/22 08:55:37 UTC
#
# ColumnLabels: energy counts/s
#
541  927.5
540.9  966.25
540.8  981.25
540.7  973.75
540.6  980.625
540.5  976.875
540.4  977.5
540.3  1036.875
540.2  989.375
540.1  1050.625
540  1020.625
539.9  1061.25
539.8  1035.625
539.7  1086.25
539.6  1051.25
539.5  1080
539.4  1115
539.3  1116.875
539.2  1128.125
539.1  1262.5
539  1248.125
538.9  1298.125
538.8  1306.875
538.7  1404.375
538.6  1433.75
538.5  1563.75
538.4  1730.625
538.3  1716.875
538.2  1865.625
538.1  2020
538  2189.375
537.9  2398.75
537.8  2618.125
537.7  2915.625
537.6  3046.25
537.5  3389.375
537.4  3795
537.3  4020
537.2  4308.125
537.1  4682.5
537  5031.875
536.9  5183.125
536.8  5613.125
536.7  5803.125
536.6  5938.75
536.5  6155
536.4  6191.25
536.3  6163.75
536.2  6137.5
536.1  6075.625
536  5898.75
535.9  5728.75
535.8  5385.625
535.7  5063.125
535.6  4787.5
535.5  4389.375
535.4  4034.375
535.3  3810
535.2  3381.25
535.1  3095.625
535  2930
534.9  2628.125
534.8  2370
534.7  2209.375
534.6  2015.625
534.5  1810.625
534.4  1653.125
534.3  1597.5
534.2  1465.625
534.1  1364.375
534  1310.625
533.9  1309.375
533.8  1176.875
533.7  1185
533.6  1106.875
533.5  1049.375
533.4  1104.375
533.3  1075
533.2  1030
533.1  1020
533  1003.75
532.9  1008.125
532.8  985.625
532.7  988.125
532.6  941.875
532.5  935
532.4  931.25
532.3  968.75
532.2  933.75
532.1  912.5
532  923.125
531.9  968.75
531.8  968.75
531.7  899.375
531.6  930.625
531.5  950
531.4  935.625
531.3  933.125
531.2  910
531.1  929.375
531  947.5
530.9  926.25
530.8  928.125
530.7  909.375
530.6  891.875
530.5  926.25
530.4  883.75
530.3  898.125
530.2  888.125
530.1  879.375
530  845.625
529.9  880
529.8  850.625
529.7  834.375
529.6  812.5
529.5  848.125
529.4  853.75
529.3  826.875
529.2  827.5
529.1  826.25
529  799.375
528.9  847.5
528.8  850.625
528.7  852.5
528.6  903.75
528.5  826.875
528.4  884.375
528.3  860
528.2  895.625
528.1  883.125
528  926.25
527.9  913.125
527.8  961.25
527.7  965
527.6  1030.625
527.5  1008.125
527.4  1026.875
527.3  1038.75
527.2  1098.125
527.1  1040
527  1100

# Region:            N1s
# Acquisition Date:  09/02/22 09:34:23 UTC
# Analysis Method:   XPS
# Analyzer:          Phoibos 100 R6
# Analyzer Lens:     LargeArea:1.5kV
# Analyzer Slit:     1:0.2x20\B:open
# Scan Mode:         FixedAnalyzerTransmission
# Curves/Scan:       1
# Values/Curve:      121
# Dwell Time:        0.8
# Excitation Energy: 1486.61
# Binding Energy:    409
# Pass Energy:       30
# Bias Voltage:      90
# Detector Voltage:  2600
# Eff. Workfunction: 4.309
# Source:            X-Ray Dummy
# Comment:           
#
# Cycle: 0
# Number of Scans: 20
#
# Cycle: 0, Curve: 0
# Acquisition Date: 09/02/22 09:34:23 UTC
#
# ColumnLabels: energy counts/s
#
409  668.3125
408.9  667
408.8  666.4375
408.7  661.75
408.6  647.5625
408.5  673.75
408.4  663.25
408.3  657.9375
408.2  667.4375
408.1  660
408  661.25
407.9  662.875
407.8  667.9375
407.7  659.4375
407.6  657.75
407.5  666.4375
407.4  670.0625
407.3  661.125
407.2  671.125
407.1  662
407  662.5625
406.9  676.4375
406.8  669.25
406.7  699.5
406.6  672.25
406.5  658.25
406.4  673.5625
406.3  671.5
406.2  669.0625
406.1  667.3125
406  681
405.9  672.625
405.8  681.375
405.7  680.1875
405.6  679.5625
405.5  680
405.4  671.9375
405.3  692.25
405.2  683
405.1  698.9375
405  683.625
404.9  692.75
404.8  692.5
404.7  695.8125
404.6  708.1875
404.5  698.9375
404.4  690.875
404.3  687.5
404.2  688.4375
404.1  694.875
404  693.75
403.9  700.625
403.8  699.0625
403.7  693.875
403.6  701.625
403.5  695.875
403.4  718.8125
403.3  701.125
403.2  699.375
403.1  700.8125
403  709.75
402.9  698.5
402.8  704.8125
402.7  694
402.6  709.5
402.5  694.6875
402.4  704.3125
402.3  716.25
402.2  709.25
402.1  703.625
402  700.8125
401.9  709.8125
401.8  693.5625
401.7  688.25
401.6  683.1875
401.5  695.875
401.4  692.4375
401.3  685.25
401.2  691.5
401.1  683.4375
401  708.1875
400.9  695.1875
400.8  688.25
400.7  683.75
400.6  694.625
400.5  685.1875
400.4  673.375
400.3  676.625
400.2  672.6875
400.1  686
400  676.875
399.9  677.875
399.8  664.9375
399.7  672.8125
399.6  668.125
399.5  662.125
399.4  663.8125
399.3  682.1875
399.2  675.5
399.1  675.0625
399  673.3125
398.9  667.75
398.8  689.625
398.7  678.0625
398.6  672.625
398.5  660
398.4  677.5625
398.3  674.8125
398.2  671.625
398.1  670.5625
398  669.3125
397.9  664.3125
397.8  674.25
397.7  673.75
397.6  665.625
397.5  661.6875
397.4  679.375
397.3  669.9375
397.2  673.375
397.1  678.1875
397  663

# Region:            Si2p
# Acquisition Date:  09/02/22 08:58:46 UTC
# Analysis Method:   XPS
# Analyzer:          Phoibos 100 R6
# Analyzer Lens:     LargeArea:1.5kV
# Analyzer Slit:     1:0.2x20\B:open
# Scan Mode:         FixedAnalyzerTransmission
# Curves/Scan:       1
# Values/Curve:      111
# Dwell Time:        0.8
# Excitation Energy: 1486.61
# Binding Energy:    112
# Pass Energy:       30
# Bias Voltage:      90
# Detector Voltage:  2600
# Eff. Workfunction: 4.309
# Source:            X-Ray Dummy
# Comment:           
#
# Cycle: 0
# Number of Scans: 2
#
# Cycle: 0, Curve: 0
# Acquisition Date: 09/02/22 08:58:46 UTC
#
# ColumnLabels: energy counts/s
#
112  363.75
111.9  406.875
111.8  372.5
111.7  365
111.6  397.5
111.5  376.875
111.4  340.625
111.3  358.125
111.2  376.875
111.1  371.875
111  367.5
110.9  397.5
110.8  400.625
110.7  365.625
110.6  393.125
110.5  384.375
110.4  366.875
110.3  375
110.2  361.25
110.1  393.125
110  404.375
109.9  412.5
109.8  418.125
109.7  425
109.6  414.375
109.5  445
109.4  414.375
109.3  441.25
109.2  474.375
109.1  470
109  484.375
108.9  567.5
108.8  566.875
108.7  601.875
108.6  615.625
108.5  723.125
108.4  672.5
108.3  780.625
108.2  822.5
108.1  868.125
108  927.5
107.9  961.875
107.8  1025.625
107.7  1045
107.6  1134.375
107.5  1159.375
107.4  1160.625
107.3  1183.75
107.2  1213.75
107.1  1145.625
107  1160
106.9  1191.875
106.8  1223.125
106.7  1147.5
106.6  1135.625
106.5  1080
106.4  1046.25
106.3  995.625
106.2  912.5
106.1  905.625
106  808.125
105.9  766.25
105.8  718.75
105.7  720
105.6  673.75
105.5  605
105.4  584.375
105.3  554.375
105.2  498.125
105.1  483.75
105  506.25
104.9  456.875
104.8  458.125
104.7  450
104.6  420.625
104.5  431.875
104.4  406.875
104.3  434.375
104.2  377.5
104.1  407.5
104  390
103.9  374.375
103.8  376.25
103.7  393.75
103.6  367.5
103.5  396.875
103.4  390.625
103.3  393.125
103.2  370
103.1  351.875
103  382.5
102.9  352.5
102.8  368.125
102.7  376.875
102.6  349.375
102.5  342.5
102.4  334.375
102.3  368.125
102.2  346.25
102.1  341.875
102  361.875
101.9  356.25
101.8  397.5
101.7  376.875
101.6  348.125
101.5  346.25
101.4  363.75
101.3  364.375
101.2  345.625
101.1  359.375
101  336.25

