# Created by:        SpecsLab Prodigy, Version 4.60.2-r85849 
#
# XY-Serializer Export Settings:
#   Comment Prefix:           #
#   Output meta data:         yes
#   Energy Axis:              Binding Energy
#   Count Rate:               Counts per Second
#   Separate Scan Data:       no
#   Separate Channel Data:    no
#   External Channel Data:    yes
#   Transmission Function:    no
#   ErrorBar:                 no
#   Operation Results:        yes
#   Time Zone Format:         UTC
#
# Group:             Spectrum Group
#
# Region:            C1s
# Acquisition Date:  08/26/22 00:24:45 UTC
# Analysis Method:   XPS
# Analyzer:          Phoibos 100 R6
# Analyzer Lens:     LargeArea:1.5kV
# Analyzer Slit:     1:0.2x20\B:open
# Scan Mode:         FixedAnalyzerTransmission
# Curves/Scan:       1
# Values/Curve:      151
# Dwell Time:        0.8
# Excitation Energy: 1486.61
# Binding Energy:    295
# Pass Energy:       30
# Bias Voltage:      90
# Detector Voltage:  2600
# Eff. Workfunction: 4.309
# Source:            X-Ray Dummy
# Comment:           
#
# Cycle: 0
# Number of Scans: 50
#
# Cycle: 0, Curve: 0
# Acquisition Date: 08/26/22 00:24:45 UTC
#
# ColumnLabels: energy counts/s
#
295  971.775
294.9  974.075
294.8  971.55
294.7  976.275
294.6  977.6
294.5  973.475
294.4  978.75
294.3  969.55
294.2  978.925
294.1  977.9
294  985.85
293.9  979.2
293.8  1006.075
293.7  978.9
293.6  982.3
293.5  981.525
293.4  975.175
293.3  982.025
293.2  982.575
293.1  973.25
293  970.075
292.9  978.65
292.8  983.35
292.7  974.95
292.6  979.425
292.5  980.475
292.4  985
292.3  978.225
292.2  985.975
292.1  968.2
292  975.65
291.9  976.1
291.8  984.475
291.7  974.65
291.6  976.675
291.5  982.475
291.4  976.175
291.3  974.85
291.2  980.525
291.1  986.75
291  986.45
290.9  998.575
290.8  978.15
290.7  988.8
290.6  995.425
290.5  993.675
290.4  985.3
290.3  989.45
290.2  992.8
290.1  997.925
290  1001.95
289.9  997.4
289.8  998.05
289.7  1000.225
289.6  997.05
289.5  1012.225
289.4  1008.1
289.3  1003.25
289.2  1016.075
289.1  1016.675
289  1017.075
288.9  1028.475
288.8  1038.175
288.7  1038.95
288.6  1051.7
288.5  1059.8
288.4  1060.75
288.3  1070.375
288.2  1073.125
288.1  1084.875
288  1101.975
287.9  1113.375
287.8  1121.45
287.7  1121.475
287.6  1124.475
287.5  1134.4
287.4  1139.475
287.3  1147.375
287.2  1139.025
287.1  1159.7
287  1151.05
286.9  1154.1
286.8  1152.075
286.7  1142.125
286.6  1151.6
286.5  1158.6
286.4  1153.025
286.3  1136.825
286.2  1131.625
286.1  1124.4
286  1121.175
285.9  1116.65
285.8  1106.625
285.7  1105.875
285.6  1092.025
285.5  1079.05
285.4  1062.275
285.3  1067.7
285.2  1051.675
285.1  1052.475
285  1032.825
284.9  1019.125
284.8  1019.1
284.7  1013.25
284.6  1005.625
284.5  994.6
284.4  1000.825
284.3  998.475
284.2  994.425
284.1  988.925
284  984.5
283.9  995.475
283.8  986.575
283.7  974.95
283.6  981.8
283.5  978.3
283.4  978.25
283.3  969.15
283.2  981.725
283.1  963.1
283  976.2
282.9  974.85
282.8  958.375
282.7  975.85
282.6  967.325
282.5  966.725
282.4  970.125
282.3  975.45
282.2  960.2
282.1  973.425
282  969.175
281.9  967.3
281.8  971.95
281.7  968.525
281.6  965.5
281.5  961.6
281.4  973.825
281.3  967.425
281.2  971.375
281.1  978.125
281  978.525
280.9  966.225
280.8  972.225
280.7  965.175
280.6  973.2
280.5  966.65
280.4  965.925
280.3  974.2
280.2  974.425
280.1  967.6
280  975.725

# Region:            overview
# Acquisition Date:  08/25/22 16:36:47 UTC
# Analysis Method:   XPS
# Analyzer:          Phoibos 100 R6
# Analyzer Lens:     MediumArea:1.5kV
# Analyzer Slit:     1:0.2x20\B:open
# Scan Mode:         FixedAnalyzerTransmission
# Curves/Scan:       1
# Values/Curve:      1205
# Dwell Time:        0.2
# Excitation Energy: 1486.61
# Binding Energy:    1200
# Pass Energy:       50
# Bias Voltage:      90
# Detector Voltage:  2600
# Eff. Workfunction: 4.309
# Source:            X-Ray Dummy
# Comment:           
#
# Cycle: 0
# Number of Scans: 1
#
# Cycle: 0, Curve: 0
# Acquisition Date: 08/25/22 16:36:47 UTC
#
# ColumnLabels: energy counts/s
#
1200  10820
1199  10215
1198  10445
1197  10190
1196  10350
1195  10810
1194  10530
1193  10835
1192  10715
1191  10610
1190  10670
1189  10350
1188  9910
1187  10340
1186  10090
1185  10290
1184  9875
1183  10340
1182  9610
1181  9540
1180  9765
1179  9775
1178  9755
1177  9675
1176  9530
1175  9970
1174  9025
1173  9490
1172  9325
1171  9820
1170  9685
1169  9935
1168  9225
1167  9730
1166  9565
1165  9240
1164  9205
1163  9465
1162  9600
1161  9365
1160  9240
1159  9505
1158  9275
1157  9560
1156  9465
1155  9510
1154  9710
1153  9110
1152  9325
1151  9200
1150  9090
1149  9345
1148  9240
1147  9305
1146  9005
1145  8940
1144  8680
1143  8655
1142  8645
1141  8550
1140  8510
1139  8300
1138  7920
1137  8040
1136  7870
1135  7915
1134  8065
1133  7605
1132  7405
1131  7560
1130  7170
1129  7565
1128  7440
1127  7555
1126  7475
1125  7420
1124  7375
1123  7420
1122  7370
1121  7635
1120  7510
1119  7255
1118  7270
1117  7485
1116  7435
1115  7655
1114  7205
1113  7290
1112  7050
1111  7345
1110  7535
1109  7250
1108  7340
1107  7145
1106  7080
1105  7160
1104  7425
1103  7900
1102  7205
1101  7435
1100  7220
1099  7450
1098  7215
1097  7410
1096  7280
1095  7210
1094  7510
1093  7610
1092  7660
1091  7915
1090  8290
1089  9075
1088  9695
1087  10365
1086  10320
1085  9770
1084  9030
1083  8760
1082  8280
1081  8090
1080  7750
1079  7975
1078  7765
1077  6840
1076  6265
1075  5715
1074  5475
1073  5410
1072  5230
1071  5665
1070  5300
1069  5600
1068  5965
1067  5605
1066  5890
1065  5525
1064  5590
1063  5385
1062  5805
1061  5340
1060  5345
1059  5190
1058  5315
1057  5170
1056  5055
1055  5150
1054  4895
1053  5060
1052  4870
1051  5150
1050  4800
1049  4875
1048  5005
1047  4905
1046  4775
1045  4885
1044  4470
1043  4770
1042  5000
1041  4975
1040  4845
1039  4795
1038  4595
1037  4920
1036  4935
1035  4740
1034  4580
1033  4660
1032  4695
1031  4715
1030  5080
1029  4855
1028  4700
1027  4860
1026  4625
1025  4910
1024  4770
1023  4625
1022  4825
1021  4875
1020  5040
1019  4695
1018  4765
1017  4785
1016  4665
1015  4610
1014  4805
1013  4965
1012  4965
1011  4720
1010  5020
1009  4780
1008  4630
1007  5040
1006  4935
1005  4895
1004  4835
1003  4930
1002  4630
1001  5060
1000  4805
999  4815
998  4770
997  4905
996  4940
995  5125
994  4990
993  4875
992  4880
991  5060
990  4735
989  5000
988  4880
987  4575
986  4810
985  4505
984  4520
983  4720
982  4615
981  4910
980  4790
979  4720
978  4910
977  5105
976  5510
975  5970
974  5290
973  5075
972  5055
971  4970
970  4585
969  4665
968  4395
967  4520
966  4115
965  4415
964  4285
963  4040
962  4290
961  4070
960  4085
959  4130
958  4035
957  4430
956  4110
955  4250
954  4415
953  4275
952  4485
951  4365
950  4285
949  4335
948  4260
947  4185
946  4230
945  4355
944  4055
943  4195
942  4190
941  4210
940  4310
939  4340
938  4210
937  4130
936  4255
935  4370
934  4110
933  4330
932  4265
931  4340
930  4145
929  4255
928  4210
927  4060
926  4255
925  4165
924  4160
923  4440
922  4455
921  4095
920  4350
919  4310
918  4310
917  4250
916  4180
915  4300
914  4150
913  4225
912  4485
911  4420
910  4320
909  4415
908  4260
907  4150
906  4525
905  4255
904  4310
903  4130
902  4385
901  4130
900  4275
899  4290
898  4565
897  4275
896  4135
895  4180
894  4285
893  4240
892  4345
891  4175
890  4280
889  4295
888  4350
887  4150
886  4155
885  4165
884  4200
883  4360
882  3910
881  4270
880  4085
879  4150
878  4155
877  4150
876  4265
875  4035
874  4555
873  4280
872  4280
871  4420
870  3995
869  4465
868  4340
867  4340
866  4140
865  4475
864  4210
863  4405
862  4585
861  4365
860  4525
859  4190
858  4490
857  4355
856  4525
855  4260
854  4415
853  4495
852  4345
851  4515
850  4590
849  4465
848  4255
847  4620
846  4300
845  4355
844  4460
843  4025
842  4350
841  4435
840  4425
839  4725
838  4915
837  4370
836  4515
835  4355
834  4665
833  4535
832  4305
831  4675
830  4910
829  4765
828  4895
827  4615
826  4805
825  4780
824  4915
823  4430
822  4410
821  4550
820  4620
819  4405
818  4240
817  4645
816  4370
815  4275
814  4455
813  4835
812  4245
811  4325
810  4435
809  4240
808  4645
807  4095
806  4470
805  4200
804  4315
803  4420
802  4025
801  4375
800  4240
799  4385
798  4400
797  4400
796  4380
795  4610
794  4295
793  4370
792  4380
791  4410
790  4120
789  4515
788  4285
787  4060
786  4325
785  4300
784  4310
783  4235
782  4490
781  4445
780  4510
779  4455
778  4475
777  4305
776  4325
775  4335
774  4440
773  4665
772  4495
771  4295
770  4625
769  4285
768  4635
767  4785
766  4515
765  4460
764  4555
763  4590
762  4425
761  4615
760  4840
759  4710
758  4740
757  4860
756  4525
755  4805
754  4290
753  4345
752  4455
751  4515
750  4660
749  4425
748  4490
747  4740
746  4490
745  4505
744  4645
743  4650
742  4440
741  4465
740  4675
739  4720
738  4750
737  5060
736  4570
735  4465
734  4860
733  4555
732  4830
731  5100
730  4685
729  4760
728  4965
727  4735
726  4690
725  4815
724  4470
723  4565
722  4525
721  4930
720  4855
719  5100
718  5070
717  5020
716  5160
715  4975
714  5190
713  4875
712  4820
711  4835
710  4875
709  5025
708  5075
707  5315
706  6020
705  6550
704  6530
703  6145
702  5460
701  5300
700  4640
699  4550
698  4550
697  4765
696  4695
695  4895
694  4845
693  4755
692  4725
691  4950
690  4580
689  4840
688  4610
687  4685
686  4905
685  4605
684  4675
683  4665
682  4430
681  5015
680  4385
679  4940
678  4420
677  4650
676  4730
675  4835
674  4615
673  4615
672  4655
671  5255
670  5265
669  6005
668  7155
667  8160
666  8040
665  6895
664  5900
663  5425
662  4645
661  4610
660  4455
659  4195
658  4490
657  4255
656  4605
655  4255
654  4170
653  3960
652  4040
651  3820
650  3905
649  4025
648  3945
647  4070
646  3725
645  4190
644  3880
643  4030
642  3895
641  4015
640  3910
639  3885
638  3650
637  3945
636  3690
635  4000
634  3880
633  3710
632  4110
631  4040
630  3730
629  4040
628  3930
627  3655
626  3915
625  3980
624  3965
623  3920
622  3805
621  4125
620  3955
619  3915
618  4005
617  4080
616  3880
615  4035
614  4315
613  4330
612  4265
611  4085
610  4165
609  4240
608  4080
607  4180
606  3870
605  4255
604  3970
603  4175
602  4165
601  4485
600  4225
599  4130
598  4160
597  4495
596  4095
595  4090
594  4215
593  4230
592  4420
591  4330
590  4425
589  4190
588  4030
587  4095
586  3995
585  4135
584  4345
583  4155
582  4275
581  4135
580  3990
579  4445
578  4205
577  4185
576  4195
575  4185
574  4365
573  4205
572  4235
571  4480
570  4265
569  4380
568  4370
567  4240
566  4605
565  3955
564  4270
563  4435
562  4370
561  4315
560  4575
559  4665
558  4035
557  4365
556  4415
555  4340
554  4385
553  4550
552  4525
551  4525
550  4395
549  4680
548  4740
547  4575
546  4450
545  4665
544  4515
543  4320
542  4445
541  4220
540  4180
539  4520
538  4115
537  4375
536  4260
535  4510
534  4595
533  5295
532  6985
531  7950
530  6865
529  5155
528  4595
527  4275
526  4040
525  4535
524  4280
523  4080
522  4175
521  4505
520  4490
519  4110
518  4495
517  3970
516  3925
515  4085
514  4175
513  4075
512  4420
511  4240
510  4090
509  4365
508  3940
507  4180
506  4280
505  4010
504  4275
503  4040
502  4300
501  4165
500  4230
499  4030
498  4270
497  4565
496  4860
495  4715
494  4605
493  4375
492  4075
491  4260
490  4255
489  4515
488  5240
487  5060
486  4960
485  4335
484  4155
483  4000
482  4195
481  4370
480  4355
479  4100
478  4065
477  4305
476  4385
475  4385
474  4385
473  4600
472  4555
471  4670
470  4325
469  4540
468  4040
467  4305
466  4595
465  4340
464  4655
463  4475
462  4150
461  4395
460  3955
459  3920
458  3910
457  3905
456  4335
455  5815
454  9530
453  14225
452  11605
451  5885
450  3445
449  3380
448  4460
447  8690
446  16295
445  18180
444  11155
443  5180
442  3145
441  2655
440  2500
439  1965
438  1805
437  2220
436  2915
435  3290
434  2520
433  2115
432  1840
431  1520
430  1510
429  1485
428  1605
427  1575
426  1545
425  1430
424  1400
423  1555
422  1295
421  1490
420  1420
419  1485
418  1390
417  1520
416  1445
415  1390
414  1420
413  1390
412  1415
411  1340
410  1400
409  1255
408  1250
407  1195
406  1435
405  1500
404  1480
403  1425
402  1445
401  1700
400  1420
399  1495
398  1310
397  1240
396  1425
395  1465
394  1480
393  1440
392  1395
391  1310
390  1315
389  1520
388  1350
387  1320
386  1320
385  1345
384  1565
383  1405
382  1685
381  1455
380  1465
379  1465
378  1380
377  1445
376  1465
375  1615
374  1430
373  1305
372  1245
371  1315
370  1260
369  1455
368  1350
367  1340
366  1265
365  1160
364  1190
363  1225
362  1230
361  1275
360  1425
359  1185
358  1225
357  1300
356  1285
355  1255
354  1185
353  1270
352  1375
351  1335
350  1325
349  1225
348  1300
347  1325
346  1405
345  1330
344  1260
343  1430
342  1285
341  1325
340  1265
339  1235
338  1260
337  1340
336  1315
335  1275
334  1510
333  1340
332  1405
331  1300
330  1215
329  1395
328  1360
327  1315
326  1390
325  1260
324  1455
323  1235
322  1380
321  1340
320  1385
319  1345
318  1425
317  1380
316  1300
315  1260
314  1225
313  1245
312  1355
311  1185
310  1320
309  1290
308  1470
307  1290
306  1455
305  1180
304  1600
303  1280
302  1325
301  1335
300  1345
299  1400
298  1415
297  1330
296  1245
295  1385
294  1275
293  1425
292  1270
291  1245
290  1490
289  1485
288  1445
287  1565
286  1785
285  1370
284  1355
283  1580
282  1490
281  1425
280  1280
279  1445
278  1350
277  1420
276  1200
275  1440
274  1405
273  1305
272  1290
271  1575
270  1380
269  1400
268  1255
267  1370
266  1495
265  1305
264  1245
263  1480
262  1440
261  1315
260  1295
259  1395
258  1370
257  1485
256  1355
255  1435
254  1445
253  1490
252  1420
251  1520
250  1470
249  1280
248  1570
247  1250
246  1450
245  1455
244  1520
243  1420
242  1575
241  1325
240  1500
239  1385
238  1475
237  1435
236  1480
235  1385
234  1430
233  1415
232  1455
231  1335
230  1485
229  1415
228  1500
227  1350
226  1565
225  1435
224  1335
223  1230
222  1405
221  1485
220  1405
219  1360
218  1200
217  1335
216  1285
215  1375
214  1220
213  1550
212  1460
211  1440
210  1385
209  1415
208  1285
207  1365
206  1370
205  1380
204  1455
203  1460
202  1465
201  1415
200  1425
199  1320
198  1385
197  1375
196  1460
195  1550
194  1565
193  1485
192  1395
191  1360
190  1425
189  1420
188  1350
187  1380
186  1390
185  1470
184  1470
183  1415
182  1445
181  1375
180  1495
179  1545
178  1410
177  1465
176  1420
175  1520
174  1450
173  1365
172  1565
171  1550
170  1320
169  1465
168  1485
167  1370
166  1550
165  1375
164  1535
163  1520
162  1470
161  1435
160  1530
159  1400
158  1495
157  1555
156  1670
155  1570
154  1450
153  1525
152  1470
151  1460
150  1535
149  1420
148  1410
147  1540
146  1430
145  1385
144  1455
143  1505
142  1500
141  1475
140  1600
139  1645
138  1470
137  1595
136  1455
135  1545
134  1595
133  1555
132  1440
131  1570
130  1595
129  1415
128  1525
127  1790
126  1900
125  1585
124  1695
123  1775
122  1425
121  1550
120  1590
119  1455
118  1580
117  1505
116  1520
115  1480
114  1440
113  1470
112  1525
111  1605
110  1570
109  1530
108  1495
107  1455
106  1435
105  1570
104  1700
103  1400
102  1485
101  1620
100  1585
99  1550
98  1625
97  1660
96  1690
95  1665
94  1535
93  1410
92  1685
91  1600
90  1745
89  1705
88  1720
87  1780
86  1675
85  1715
84  1710
83  1905
82  1795
81  1845
80  1845
79  1700
78  1660
77  1695
76  1580
75  1605
74  1470
73  1420
72  1365
71  1375
70  1375
69  1320
68  1170
67  1180
66  1175
65  1150
64  1220
63  1120
62  1085
61  975
60  1045
59  1055
58  1160
57  1110
56  1200
55  1135
54  1095
53  1135
52  1155
51  1110
50  1120
49  1105
48  1195
47  1230
46  1210
45  1190
44  1075
43  1035
42  1425
41  1175
40  1240
39  1090
38  1175
37  1110
36  1085
35  1270
34  1205
33  1270
32  1100
31  1175
30  1145
29  1205
28  1370
27  1300
26  1235
25  1340
24  1040
23  1210
22  1290
21  1820
20  3075
19  4110
18  3685
17  1955
16  1200
15  820
14  875
13  835
12  775
11  755
10  1015
9  1085
8  1350
7  1065
6  925
5  880
4  795
3  675
2  605
1  670
-2.2737368e-013  675
-1  755
-2  660
-3  730
-4  605

# Region:            N1s
# Acquisition Date:  08/26/22 01:49:54 UTC
# Analysis Method:   XPS
# Analyzer:          Phoibos 100 R6
# Analyzer Lens:     LargeArea:1.5kV
# Analyzer Slit:     1:0.2x20\B:open
# Scan Mode:         FixedAnalyzerTransmission
# Curves/Scan:       1
# Values/Curve:      121
# Dwell Time:        0.8
# Excitation Energy: 1486.61
# Binding Energy:    409
# Pass Energy:       30
# Bias Voltage:      90
# Detector Voltage:  2600
# Eff. Workfunction: 4.309
# Source:            X-Ray Dummy
# Comment:           
#
# Cycle: 0
# Number of Scans: 100
#
# Cycle: 0, Curve: 0
# Acquisition Date: 08/26/22 01:49:54 UTC
#
# ColumnLabels: energy counts/s
#
409  1096.05
408.9  1080.0125
408.8  1085.25
408.7  1084.1625
408.6  1086.4125
408.5  1084.3875
408.4  1086.2375
408.3  1087.475
408.2  1081.95
408.1  1084.7875
408  1090.975
407.9  1083.6625
407.8  1085.3125
407.7  1088.7375
407.6  1082.325
407.5  1088.6375
407.4  1088.7875
407.3  1088.275
407.2  1084.9125
407.1  1080.1625
407  1084.6625
406.9  1091.1375
406.8  1083.7875
406.7  1082.3875
406.6  1090.4125
406.5  1085.5625
406.4  1089.1625
406.3  1094.55
406.2  1085.3875
406.1  1092.7875
406  1088.8625
405.9  1085.1625
405.8  1087.7625
405.7  1087.375
405.6  1082.15
405.5  1085.1125
405.4  1082.8
405.3  1085.2125
405.2  1086.8875
405.1  1082.5625
405  1084.65
404.9  1082.3
404.8  1085.3625
404.7  1089.625
404.6  1090.5375
404.5  1082.1125
404.4  1091.425
404.3  1088.95
404.2  1092.075
404.1  1091.2125
404  1101.5625
403.9  1091.2625
403.8  1090.4375
403.7  1093.1625
403.6  1098.075
403.5  1092.0125
403.4  1102.9875
403.3  1100.1
403.2  1093.775
403.1  1102.45
403  1095.9625
402.9  1096
402.8  1096.4375
402.7  1106.7625
402.6  1102.1625
402.5  1106.4625
402.4  1105.0375
402.3  1113.825
402.2  1098.2
402.1  1109.325
402  1114.9
401.9  1106.3625
401.8  1109.025
401.7  1111.15
401.6  1109
401.5  1111.65
401.4  1112.35
401.3  1113.175
401.2  1109.5
401.1  1112.325
401  1116.525
400.9  1120.275
400.8  1111.025
400.7  1121.5125
400.6  1115.9
400.5  1110.775
400.4  1112.25
400.3  1123.2625
400.2  1121.0875
400.1  1118.4625
400  1125.4
399.9  1115.3875
399.8  1113.5125
399.7  1112.8125
399.6  1104.3
399.5  1109.675
399.4  1100.5875
399.3  1102.925
399.2  1098.025
399.1  1097.15
399  1097.7625
398.9  1098.1
398.8  1100.475
398.7  1092.175
398.6  1091.25
398.5  1088.3375
398.4  1085.0125
398.3  1086.0875
398.2  1081.8125
398.1  1083.1
398  1085.4125
397.9  1089.6
397.8  1081.3625
397.7  1086.0375
397.6  1081.45
397.5  1080.9
397.4  1084.925
397.3  1077.85
397.2  1082.1625
397.1  1079.6125
397  1081.2875

# Region:            O1s
# Acquisition Date:  08/25/22 23:53:13 UTC
# Analysis Method:   XPS
# Analyzer:          Phoibos 100 R6
# Analyzer Lens:     LargeArea:1.5kV
# Analyzer Slit:     1:0.2x20\B:open
# Scan Mode:         FixedAnalyzerTransmission
# Curves/Scan:       1
# Values/Curve:      141
# Dwell Time:        0.8
# Excitation Energy: 1486.61
# Binding Energy:    541
# Pass Energy:       30
# Bias Voltage:      90
# Detector Voltage:  2600
# Eff. Workfunction: 4.309
# Source:            X-Ray Dummy
# Comment:           
#
# Cycle: 0
# Number of Scans: 40
#
# Cycle: 0, Curve: 0
# Acquisition Date: 08/25/22 23:53:13 UTC
#
# ColumnLabels: energy counts/s
#
541  3704.8125
540.9  3694.8125
540.8  3709.7813
540.7  3700.9063
540.6  3694.8125
540.5  3695.6875
540.4  3694.1563
540.3  3705.9688
540.2  3692.875
540.1  3694.7813
540  3681.4375
539.9  3683.7188
539.8  3682.9688
539.7  3685.2813
539.6  3686.4375
539.5  3675.8125
539.4  3660.3125
539.3  3675
539.2  3662
539.1  3670.0313
539  3670.25
538.9  3637.75
538.8  3673.0625
538.7  3673.0938
538.6  3666.0625
538.5  3681.0313
538.4  3671.6563
538.3  3668.5625
538.2  3661.9375
538.1  3646.75
538  3666
537.9  3645.4375
537.8  3672.9063
537.7  3653.0938
537.6  3666.3438
537.5  3680.9375
537.4  3665.2813
537.3  3675.7813
537.2  3671.1875
537.1  3675.9375
537  3656.2188
536.9  3664.2188
536.8  3679.5938
536.7  3640.0313
536.6  3689.2188
536.5  3676.9375
536.4  3675.2813
536.3  3698.8125
536.2  3691.1563
536.1  3717.9375
536  3709.3125
535.9  3724.4063
535.8  3728.0938
535.7  3757.0625
535.6  3730.5938
535.5  3791.4688
535.4  3765.375
535.3  3793.9063
535.2  3812.9688
535.1  3828.8125
535  3823.25
534.9  3863.0938
534.8  3853.4688
534.7  3896.5
534.6  3920.1875
534.5  3917.6563
534.4  3950.0938
534.3  3989.0938
534.2  4004.0625
534.1  4038.6875
534  4074.8125
533.9  4099.6875
533.8  4143.6875
533.7  4209.3438
533.6  4226.75
533.5  4296.5313
533.4  4358.625
533.3  4410.5938
533.2  4444.9063
533.1  4519.4063
533  4611.9063
532.9  4679.4375
532.8  4780.6563
532.7  4856.75
532.6  4934.875
532.5  5093.75
532.4  5195.7188
532.3  5323.25
532.2  5462.1875
532.1  5600.3438
532  5739.6875
531.9  5910.2188
531.8  6076.5
531.7  6251.0313
531.6  6403.8438
531.5  6530.9688
531.4  6691.0625
531.3  6821.2188
531.2  6960.7813
531.1  7054.0313
531  7103.3438
530.9  7141.1875
530.8  7104.5
530.7  7042.125
530.6  6959.8438
530.5  6829.5625
530.4  6631.4375
530.3  6414.9063
530.2  6186.6563
530.1  5919.9063
530  5670.2188
529.9  5423.75
529.8  5183.3125
529.7  4949
529.6  4723.75
529.5  4541.5625
529.4  4383.9063
529.3  4215.5938
529.2  4086.7813
529.1  3981.6875
529  3887.0625
528.9  3855.8438
528.8  3772.0938
528.7  3733.625
528.6  3690.7813
528.5  3661.5
528.4  3637.0938
528.3  3606.9688
528.2  3579.3438
528.1  3574.0625
528  3569.5625
527.9  3546.5
527.8  3546.9063
527.7  3555.5313
527.6  3527.625
527.5  3526.125
527.4  3519.5938
527.3  3531.3438
527.2  3505.4688
527.1  3516.9375
527  3511.4688

# Region:            Si2p
# Acquisition Date:  08/25/22 22:55:45 UTC
# Analysis Method:   XPS
# Analyzer:          Phoibos 100 R6
# Analyzer Lens:     LargeArea:1.5kV
# Analyzer Slit:     1:0.2x20\B:open
# Scan Mode:         FixedAnalyzerTransmission
# Curves/Scan:       1
# Values/Curve:      261
# Dwell Time:        0.8
# Excitation Energy: 1486.61
# Binding Energy:    115
# Pass Energy:       30
# Bias Voltage:      90
# Detector Voltage:  2600
# Eff. Workfunction: 4.309
# Source:            X-Ray Dummy
# Comment:           
#
# Cycle: 0
# Number of Scans: 30
#
# Cycle: 0, Curve: 0
# Acquisition Date: 08/25/22 22:55:45 UTC
#
# ColumnLabels: energy counts/s
#
115  967.04167
114.9  965.58333
114.8  965.54167
114.7  975.29167
114.6  963.54167
114.5  976.33333
114.4  969.66667
114.3  967.375
114.2  969.75
114.1  962.16667
114  951.04167
113.9  972.58333
113.8  968.83333
113.7  967.66667
113.6  975.66667
113.5  969.75
113.4  968.41667
113.3  965.79167
113.2  968.75
113.1  958.41667
113  991.91667
112.9  954.375
112.8  972.83333
112.7  974.875
112.6  965.45833
112.5  970.66667
112.4  966.20833
112.3  968.33333
112.2  956.91667
112.1  969.20833
112  956.54167
111.9  966.41667
111.8  975.08333
111.7  963.125
111.6  962.58333
111.5  972.20833
111.4  960.66667
111.3  955.70833
111.2  963.625
111.1  966.33333
111  961.83333
110.9  952.79167
110.8  971.41667
110.7  976
110.6  964.375
110.5  972.5
110.4  967.75
110.3  962.33333
110.2  953.95833
110.1  950.70833
110  962.5
109.9  951.41667
109.8  971.83333
109.7  960.41667
109.6  967.375
109.5  961.875
109.4  971.54167
109.3  961.75
109.2  961.79167
109.1  976.95833
109  965.20833
108.9  956.33333
108.8  955.125
108.7  949
108.6  946.375
108.5  959.375
108.4  949.5
108.3  965
108.2  966.79167
108.1  966.5
108  976.16667
107.9  970.83333
107.8  964
107.7  958.83333
107.6  976.45833
107.5  970.125
107.4  971.66667
107.3  963.125
107.2  978.375
107.1  968.625
107  971.66667
106.9  979
106.8  982.25
106.7  965.29167
106.6  982
106.5  982.125
106.4  977.45833
106.3  978.5
106.2  980.5
106.1  986.29167
106  989.83333
105.9  988.04167
105.8  997.08333
105.7  983.45833
105.6  968.25
105.5  989.70833
105.4  993.83333
105.3  987.41667
105.2  995.625
105.1  987.41667
105  984.66667
104.9  991.45833
104.8  994.125
104.7  1005.0833
104.6  990.16667
104.5  1009.25
104.4  997.875
104.3  984.25
104.2  992.54167
104.1  992.91667
104  996.70833
103.9  991
103.8  1001.9167
103.7  996.25
103.6  998.16667
103.5  1001.0417
103.4  995.66667
103.3  985.25
103.2  995.08333
103.1  990.25
103  991.75
102.9  992.04167
102.8  984.91667
102.7  990.375
102.6  985.45833
102.5  986.25
102.4  984.20833
102.3  986.83333
102.2  993.70833
102.1  984.91667
102  982.29167
101.9  972.5
101.8  994.41667
101.7  982.95833
101.6  980.375
101.5  985.45833
101.4  992.875
101.3  980.83333
101.2  981.875
101.1  986.125
101  993.16667
100.9  983.70833
100.8  990.75
100.7  989.58333
100.6  990.66667
100.5  989.125
100.4  992.16667
100.3  987.95833
100.2  994.125
100.1  992.375
100  995.95833
99.9  975.58333
99.8  981.875
99.7  1004.75
99.6  993.08333
99.5  998.29167
99.4  1000.1667
99.3  1000.875
99.2  991.45833
99.1  997.58333
99  1000.0417
98.9  992.83333
98.8  990.875
98.7  999.20833
98.6  991.95833
98.5  1018.0417
98.4  997
98.3  1000.125
98.2  991.45833
98.1  1010
98  991.79167
97.9  1012.6667
97.8  1005
97.7  1002.375
97.6  1003.2083
97.5  1000.4583
97.4  1018.0833
97.3  1009.8333
97.2  1013.2083
97.1  1004.8333
97  1011.5
96.9  1003.5
96.8  1015.2083
96.7  1024.25
96.6  1012.3333
96.5  998.875
96.4  1004.375
96.3  1012.75
96.2  1012.6667
96.1  1011.9167
96  1013.9167
95.9  1003.5833
95.8  1020.9167
95.7  1013.0417
95.6  998.33333
95.5  1008.7083
95.4  1023.4167
95.3  1001.5
95.2  1017.4167
95.1  1016.1667
95  1026.8333
94.9  1018
94.8  1020.7917
94.7  1006.75
94.6  1014.8333
94.5  1025.4167
94.4  1011.4583
94.3  1018.8333
94.2  1011.5417
94.1  1010.8333
94  1027
93.9  1020.6667
93.8  1022.1667
93.7  1034.7917
93.6  1026.5833
93.5  1012.4167
93.4  1030.4167
93.3  1015.75
93.2  1017.6667
93.1  1025.2083
93  1023.2917
92.9  1018.3333
92.8  1030.4583
92.7  1029.5
92.6  1039.75
92.5  1050.375
92.4  1030.25
92.3  1038.375
92.2  1034.0833
92.1  1030.4583
92  1039.7917
91.9  1037.0417
91.8  1046.125
91.7  1042.625
91.6  1039.9167
91.5  1037.7917
91.4  1043.7917
91.3  1044.0833
91.2  1040.0833
91.1  1047.4583
91  1049.25
90.9  1047.2083
90.8  1054.125
90.7  1048.5417
90.6  1045.5417
90.5  1059.5833
90.4  1056.625
90.3  1060
90.2  1061.2917
90.1  1056.7083
90  1069.3333
89.9  1067.8333
89.8  1051.375
89.7  1057.25
89.6  1061.0833
89.5  1069.2917
89.4  1060.125
89.3  1067.5417
89.2  1082.125
89.1  1078.9583
89  1082.3333

# Region:            In3d
# Acquisition Date:  08/25/22 17:48:05 UTC
# Analysis Method:   XPS
# Analyzer:          Phoibos 100 R6
# Analyzer Lens:     LargeArea:1.5kV
# Analyzer Slit:     1:0.2x20\B:open
# Scan Mode:         FixedAnalyzerTransmission
# Curves/Scan:       1
# Values/Curve:      231
# Dwell Time:        0.8
# Excitation Energy: 1486.61
# Binding Energy:    460
# Pass Energy:       30
# Bias Voltage:      90
# Detector Voltage:  2600
# Eff. Workfunction: 4.309
# Source:            X-Ray Dummy
# Comment:           
#
# Cycle: 0
# Number of Scans: 4
#
# Cycle: 0, Curve: 0
# Acquisition Date: 08/25/22 17:48:05 UTC
#
# ColumnLabels: energy counts/s
#
460  3240.9375
459.9  3169.0625
459.8  3146.875
459.7  3267.5
459.6  3164.0625
459.5  3173.4375
459.4  3173.75
459.3  3147.8125
459.2  3184.0625
459.1  3150.3125
459  3127.1875
458.9  3147.1875
458.8  3120.9375
458.7  3114.375
458.6  3085.625
458.5  3129.6875
458.4  3130.625
458.3  3100.625
458.2  3090.625
458.1  3069.375
458  3090.625
457.9  3065.3125
457.8  3099.0625
457.7  3115.3125
457.6  3051.875
457.5  3019.0625
457.4  3110.3125
457.3  3125
457.2  3157.1875
457.1  3136.25
457  3114.375
456.9  3135.3125
456.8  3223.4375
456.7  3256.25
456.6  3210
456.5  3266.875
456.4  3379.6875
456.3  3355.3125
456.2  3345.9375
456.1  3435.625
456  3496.25
455.9  3568.125
455.8  3610.9375
455.7  3737.5
455.6  3731.875
455.5  3864.6875
455.4  4036.25
455.3  4170
455.2  4356.5625
455.1  4562.8125
455  4831.875
454.9  5007.5
454.8  5280.625
454.7  5595.3125
454.6  5814.375
454.5  6188.4375
454.4  6560.3125
454.3  6960.625
454.2  7418.125
454.1  7887.8125
454  8320.625
453.9  8789.0625
453.8  9346.5625
453.7  9781.5625
453.6  10146.25
453.5  10720.938
453.4  11072.188
453.3  11542.813
453.2  11819.688
453.1  12036.875
453  12296.25
452.9  12398.125
452.8  12322.188
452.7  12188.438
452.6  11995
452.5  11597.188
452.4  11266.563
452.3  10712.188
452.2  10068.438
452.1  9265.9375
452  8644.375
451.9  7936.875
451.8  7244.6875
451.7  6479.0625
451.6  5925.3125
451.5  5423.4375
451.4  4910.3125
451.3  4409.0625
451.2  4127.5
451.1  3736.25
451  3496.5625
450.9  3345
450.8  3185
450.7  3119.375
450.6  2860.9375
450.5  2793.125
450.4  2765.625
450.3  2711.5625
450.2  2666.875
450.1  2622.8125
450  2605
449.9  2595
449.8  2546.875
449.7  2571.25
449.6  2530.9375
449.5  2509.375
449.4  2621.5625
449.3  2557.8125
449.2  2640
449.1  2663.125
449  2697.8125
448.9  2718.125
448.8  2724.6875
448.7  2834.0625
448.6  2966.5625
448.5  2993.4375
448.4  3117.1875
448.3  3206.5625
448.2  3318.125
448.1  3500.3125
448  3680.9375
447.9  3791.875
447.8  4173.4375
447.7  4299.0625
447.6  4626.875
447.5  4853.4375
447.4  5231.875
447.3  5690.3125
447.2  6048.75
447.1  6553.75
447  6926.875
446.9  7552.8125
446.8  8101.875
446.7  8664.6875
446.6  9315
446.5  9941.25
446.4  10698.125
446.3  11389.688
446.2  12120.938
446.1  12812.5
446  13337.188
445.9  14015.625
445.8  14692.188
445.7  15128.438
445.6  15628.438
445.5  16055.313
445.4  16075.625
445.3  16263.438
445.2  16346.563
445.1  16010
445  15746.563
444.9  15101.25
444.8  14381.563
444.7  13417.5
444.6  12502.188
444.5  11627.188
444.4  10633.438
444.3  9760
444.2  8730
444.1  7813.125
444  7017.1875
443.9  6253.4375
443.8  5668.4375
443.7  5123.4375
443.6  4683.75
443.5  4322.1875
443.4  4093.4375
443.3  3767.8125
443.2  3493.125
443.1  3394.0625
443  3248.125
442.9  3118.4375
442.8  3099.6875
442.7  2944.375
442.6  2857.1875
442.5  2779.6875
442.4  2680.9375
442.3  2623.4375
442.2  2539.375
442.1  2500.3125
442  2356.5625
441.9  2315.9375
441.8  2276.5625
441.7  2226.875
441.6  2209.375
441.5  2229.375
441.4  2172.5
441.3  2089.0625
441.2  2076.875
441.1  2085.625
441  2049.0625
440.9  1998.125
440.8  1961.5625
440.7  2013.75
440.6  1947.5
440.5  1909.0625
440.4  1826.875
440.3  1825.3125
440.2  1810.625
440.1  1769.375
440  1719.0625
439.9  1697.8125
439.8  1716.25
439.7  1670
439.6  1630.625
439.5  1643.75
439.4  1623.75
439.3  1594.6875
439.2  1600.3125
439.1  1573.75
439  1553.4375
438.9  1557.5
438.8  1508.125
438.7  1535
438.6  1529.6875
438.5  1573.125
438.4  1544.0625
438.3  1526.25
438.2  1528.4375
438.1  1549.6875
438  1540.9375
437.9  1534.0625
437.8  1575
437.7  1568.4375
437.6  1568.75
437.5  1615.3125
437.4  1650
437.3  1686.25
437.2  1763.4375
437.1  1760.9375
437  1806.5625

# Region:            Sn3d
# Acquisition Date:  08/25/22 17:51:13 UTC
# Analysis Method:   XPS
# Analyzer:          Phoibos 100 R6
# Analyzer Lens:     LargeArea:1.5kV
# Analyzer Slit:     1:0.2x20\B:open
# Scan Mode:         FixedAnalyzerTransmission
# Curves/Scan:       1
# Values/Curve:      231
# Dwell Time:        0.8
# Excitation Energy: 1486.61
# Binding Energy:    503
# Pass Energy:       30
# Bias Voltage:      90
# Detector Voltage:  2600
# Eff. Workfunction: 4.309
# Source:            X-Ray Dummy
# Comment:           
#
# Cycle: 0
# Number of Scans: 4
#
# Cycle: 0, Curve: 0
# Acquisition Date: 08/25/22 17:51:13 UTC
#
# ColumnLabels: energy counts/s
#
503  3555
502.9  3480.3125
502.8  3470.3125
502.7  3540
502.6  3454.0625
502.5  3474.6875
502.4  3498.4375
502.3  3524.375
502.2  3497.5
502.1  3543.125
502  3485.625
501.9  3500.625
501.8  3511.25
501.7  3488.75
501.6  3484.0625
501.5  3490
501.4  3464.6875
501.3  3483.125
501.2  3472.1875
501.1  3505.3125
501  3463.75
500.9  3578.125
500.8  3521.25
500.7  3504.0625
500.6  3526.875
500.5  3505.625
500.4  3474.375
500.3  3545
500.2  3530.9375
500.1  3480.9375
500  3512.8125
499.9  3465.9375
499.8  3453.75
499.7  3511.25
499.6  3492.1875
499.5  3551.25
499.4  3480.625
499.3  3484.6875
499.2  3506.5625
499.1  3550.9375
499  3572.1875
498.9  3536.875
498.8  3459.375
498.7  3551.5625
498.6  3565.9375
498.5  3535.9375
498.4  3575
498.3  3613.4375
498.2  3593.125
498.1  3556.875
498  3604.6875
497.9  3600.625
497.8  3636.5625
497.7  3637.8125
497.6  3691.875
497.5  3740.3125
497.4  3806.25
497.3  3806.875
497.2  3818.125
497.1  3869.6875
497  3854.375
496.9  3916.5625
496.8  3998.4375
496.7  3975.9375
496.6  4041.875
496.5  3951.25
496.4  4048.75
496.3  4106.25
496.2  4166.25
496.1  4169.0625
496  4220.9375
495.9  4220.9375
495.8  4175.9375
495.7  4195
495.6  4216.5625
495.5  4171.5625
495.4  4203.4375
495.3  4062.5
495.2  4120.9375
495.1  4077.8125
495  4039.0625
494.9  4008.125
494.8  3861.25
494.7  3852.8125
494.6  3795.625
494.5  3802.5
494.4  3671.875
494.3  3661.875
494.2  3632.8125
494.1  3581.5625
494  3573.125
493.9  3543.125
493.8  3512.8125
493.7  3511.5625
493.6  3476.25
493.5  3416.25
493.4  3492.8125
493.3  3472.5
493.2  3464.0625
493.1  3534.6875
493  3441.5625
492.9  3343.125
492.8  3441.25
492.7  3408.75
492.6  3408.125
492.5  3455
492.4  3376.5625
492.3  3503.75
492.2  3410
492.1  3444.375
492  3389.6875
491.9  3421.5625
491.8  3410.625
491.7  3414.375
491.6  3400.3125
491.5  3371.875
491.4  3365.625
491.3  3426.25
491.2  3419.375
491.1  3376.25
491  3445.625
490.9  3433.4375
490.8  3473.4375
490.7  3474.6875
490.6  3468.4375
490.5  3435.3125
490.4  3525.9375
490.3  3468.75
490.2  3449.6875
490.1  3485.625
490  3486.25
489.9  3558.75
489.8  3552.1875
489.7  3523.125
489.6  3591.5625
489.5  3625
489.4  3584.0625
489.3  3630
489.2  3773.75
489.1  3786.25
489  3819.375
488.9  3859.0625
488.8  3893.75
488.7  3907.5
488.6  3979.6875
488.5  4041.5625
488.4  4125.625
488.3  4085.625
488.2  4211.5625
488.1  4146.875
488  4244.6875
487.9  4303.125
487.8  4319.6875
487.7  4440.9375
487.6  4371.5625
487.5  4356.5625
487.4  4442.5
487.3  4466.5625
487.2  4444.375
487.1  4471.875
487  4480.9375
486.9  4452.5
486.8  4369.6875
486.7  4289.6875
486.6  4234.0625
486.5  4292.5
486.4  4133.125
486.3  4016.875
486.2  3958.4375
486.1  3946.875
486  3875
485.9  3816.875
485.8  3767.8125
485.7  3715
485.6  3717.1875
485.5  3605.3125
485.4  3527.8125
485.3  3567.5
485.2  3560.9375
485.1  3496.875
485  3425.9375
484.9  3497.1875
484.8  3505.9375
484.7  3468.125
484.6  3436.875
484.5  3419.0625
484.4  3494.6875
484.3  3440
484.2  3415.9375
484.1  3440
484  3423.125
483.9  3484.375
483.8  3438.4375
483.7  3479.6875
483.6  3449.375
483.5  3395.625
483.4  3430
483.3  3376.25
483.2  3400
483.1  3405.625
483  3380.3125
482.9  3439.6875
482.8  3347.5
482.7  3440.625
482.6  3378.125
482.5  3458.125
482.4  3456.875
482.3  3456.25
482.2  3444.0625
482.1  3429.375
482  3397.5
481.9  3441.5625
481.8  3438.125
481.7  3367.1875
481.6  3396.5625
481.5  3349.0625
481.4  3427.1875
481.3  3433.75
481.2  3410.625
481.1  3386.25
481  3460.625
480.9  3396.5625
480.8  3413.125
480.7  3453.125
480.6  3473.125
480.5  3442.1875
480.4  3430.3125
480.3  3444.6875
480.2  3395.3125
480.1  3423.75
480  3427.5

# Region:            Ba3d
# Acquisition Date:  08/25/22 21:09:25 UTC
# Analysis Method:   XPS
# Analyzer:          Phoibos 100 R6
# Analyzer Lens:     LargeArea:1.5kV
# Analyzer Slit:     1:0.2x20\B:open
# Scan Mode:         FixedAnalyzerTransmission
# Curves/Scan:       1
# Values/Curve:      121
# Dwell Time:        0.8
# Excitation Energy: 1486.61
# Binding Energy:    789
# Pass Energy:       30
# Bias Voltage:      90
# Detector Voltage:  2600
# Eff. Workfunction: 4.309
# Source:            X-Ray Dummy
# Comment:           
#
# Cycle: 0
# Number of Scans: 20
#
# Cycle: 0, Curve: 0
# Acquisition Date: 08/25/22 21:09:25 UTC
#
# ColumnLabels: energy counts/s
#
789  5149.0625
788.9  5162.75
788.8  5210.3125
788.7  5171.8125
788.6  5141.8125
788.5  5188.875
788.4  5156.0625
788.3  5181.25
788.2  5177.5
788.1  5174.5
788  5166.625
787.9  5154.1875
787.8  5162.125
787.7  5172.375
787.6  5174.8125
787.5  5147.5625
787.4  5167.25
787.3  5187.625
787.2  5167.9375
787.1  5177.8125
787  5161.125
786.9  5178.25
786.8  5160.875
786.7  5169.5625
786.6  5179.125
786.5  5167.9375
786.4  5151.0625
786.3  5194.25
786.2  5177.1875
786.1  5175.0625
786  5206.75
785.9  5157.625
785.8  5167
785.7  5137.375
785.6  5207
785.5  5162.5
785.4  5182.4375
785.3  5181.75
785.2  5160.4375
785.1  5120.9375
785  5133.625
784.9  5196.0625
784.8  5210.75
784.7  5184.25
784.6  5159.875
784.5  5184.6875
784.4  5180.5625
784.3  5153.1875
784.2  5194.1875
784.1  5192.5
784  5177.5
783.9  5180.25
783.8  5173.5625
783.7  5176.0625
783.6  5163.375
783.5  5158.75
783.4  5178.125
783.3  5171.5
783.2  5184.4375
783.1  5127.3125
783  5180.5625
782.9  5180.0625
782.8  5169.875
782.7  5159.625
782.6  5218.3125
782.5  5153.125
782.4  5180.8125
782.3  5223.8125
782.2  5198.4375
782.1  5169.625
782  5200.875
781.9  5174.8125
781.8  5191.375
781.7  5213.25
781.6  5242.5625
781.5  5193.5625
781.4  5228.625
781.3  5239.6875
781.2  5200.75
781.1  5194.4375
781  5226.625
780.9  5224.9375
780.8  5185.6875
780.7  5232.875
780.6  5232.5625
780.5  5236.6875
780.4  5192.9375
780.3  5209.4375
780.2  5193.5
780.1  5186
780  5207.6875
779.9  5195.5
779.8  5196.375
779.7  5152.25
779.6  5152.0625
779.5  5196.375
779.4  5145.3125
779.3  5179.8125
779.2  5208.75
779.1  5155.3125
779  5176.25
778.9  5154.3125
778.8  5169.5625
778.7  5152.875
778.6  5172.875
778.5  5147.8125
778.4  5143
778.3  5169.25
778.2  5137.0625
778.1  5173.4375
778  5163.6875
777.9  5162.75
777.8  5161.9375
777.7  5163.4375
777.6  5169.5625
777.5  5187.0625
777.4  5148.5
777.3  5160.5
777.2  5162.125
777.1  5155.3125
777  5159.25

# Region:            Cl2p
# Acquisition Date:  08/25/22 22:57:15 UTC
# Analysis Method:   XPS
# Analyzer:          Phoibos 100 R6
# Analyzer Lens:     LargeArea:1.5kV
# Analyzer Slit:     1:0.2x20\B:open
# Scan Mode:         FixedAnalyzerTransmission
# Curves/Scan:       1
# Values/Curve:      111
# Dwell Time:        0.8
# Excitation Energy: 1486.61
# Binding Energy:    207
# Pass Energy:       30
# Bias Voltage:      90
# Detector Voltage:  2600
# Eff. Workfunction: 4.309
# Source:            X-Ray Dummy
# Comment:           
#
# Cycle: 0
# Number of Scans: 30
#
# Cycle: 0, Curve: 0
# Acquisition Date: 08/25/22 22:57:15 UTC
#
# ColumnLabels: energy counts/s
#
207  947.875
206.9  945.04167
206.8  948.04167
206.7  953.25
206.6  952.20833
206.5  961.91667
206.4  945.75
206.3  947.625
206.2  944.75
206.1  956.875
206  955.45833
205.9  950.25
205.8  955.25
205.7  953.45833
205.6  969
205.5  962.45833
205.4  947.54167
205.3  955.45833
205.2  948.16667
205.1  960.04167
205  958.41667
204.9  956.5
204.8  960.25
204.7  951.20833
204.6  956.83333
204.5  949.79167
204.4  950.04167
204.3  947.29167
204.2  957.70833
204.1  961.20833
204  960.83333
203.9  945.83333
203.8  949.125
203.7  956.95833
203.6  958.66667
203.5  944.25
203.4  954.16667
203.3  943
203.2  957.04167
203.1  956.25
203  945
202.9  950.75
202.8  955.08333
202.7  955.875
202.6  951.625
202.5  947.5
202.4  961.125
202.3  956.41667
202.2  963.75
202.1  962.29167
202  968.75
201.9  952.25
201.8  970.125
201.7  965.16667
201.6  961.08333
201.5  969.45833
201.4  959.41667
201.3  962.375
201.2  972.16667
201.1  978.5
201  978
200.9  977.70833
200.8  984.25
200.7  983.29167
200.6  977.04167
200.5  984.08333
200.4  989.04167
200.3  983.45833
200.2  1006.2917
200.1  976.875
200  990.125
199.9  984.58333
199.8  999.58333
199.7  972.45833
199.6  976.54167
199.5  982.54167
199.4  994.66667
199.3  977.83333
199.2  992.20833
199.1  993.70833
199  982
198.9  998.16667
198.8  989.79167
198.7  987.79167
198.6  982.83333
198.5  984
198.4  976.16667
198.3  975.66667
198.2  976.75
198.1  980.20833
198  971.08333
197.9  983.625
197.8  959.08333
197.7  961.33333
197.6  964
197.5  977.125
197.4  953.29167
197.3  967.95833
197.2  951.79167
197.1  963.20833
197  961.75
196.9  959.33333
196.8  957.70833
196.7  948.79167
196.6  943.33333
196.5  961.70833
196.4  952.70833
196.3  971.91667
196.2  960.45833
196.1  949
196  947.75

# Group:             overview_HD
#
# Region:            overview
# Acquisition Date:  08/26/22 07:19:00 UTC
# Analysis Method:   XPS
# Analyzer:          Phoibos 100 R6
# Analyzer Lens:     LargeArea:1.5kV
# Analyzer Slit:     1:0.2x20\B:open
# Scan Mode:         FixedAnalyzerTransmission
# Curves/Scan:       1
# Values/Curve:      6021
# Dwell Time:        0.4
# Excitation Energy: 1486.61
# Binding Energy:    1200
# Pass Energy:       30
# Bias Voltage:      90
# Detector Voltage:  2600
# Eff. Workfunction: 4.309
# Source:            X-Ray Dummy
# Comment:           
#
# Cycle: 0
# Number of Scans: 8
#
# Cycle: 0, Curve: 0
# Acquisition Date: 08/26/22 07:19:00 UTC
#
# ColumnLabels: energy counts/s
#
1200  11076.25
1199.8  10944.688
1199.6  11040
1199.4  10993.125
1199.2  10989.063
1199  11061.563
1198.8  11012.5
1198.6  11076.25
1198.4  10884.375
1198.2  11124.375
1198  10994.375
1197.8  10987.5
1197.6  11004.688
1197.4  10949.688
1197.2  11016.875
1197  11124.063
1196.8  11002.188
1196.6  11035.313
1196.4  11059.063
1196.2  11061.563
1196  11064.375
1195.8  10950.625
1195.6  11111.563
1195.4  11154.063
1195.2  11084.063
1195  11057.5
1194.8  11173.75
1194.6  11187.5
1194.4  11200.625
1194.2  11142.188
1194  11234.063
1193.8  11205.938
1193.6  11164.063
1193.4  11250.938
1193.2  11049.063
1193  11152.5
1192.8  11115.938
1192.6  11179.688
1192.4  11153.438
1192.2  11146.875
1192  11125.938
1191.8  11165.625
1191.6  11288.125
1191.4  11132.5
1191.2  11116.875
1191  11143.75
1190.8  11182.5
1190.6  11124.375
1190.4  11181.25
1190.2  11158.125
1190  11071.875
1189.8  11058.438
1189.6  11010
1189.4  10966.563
1189.2  11048.125
1189  11005.625
1188.8  11027.5
1188.6  10968.125
1188.4  10905.625
1188.2  10925.938
1188  10945.313
1187.8  10812.813
1187.6  10810.938
1187.4  10931.25
1187.2  10866.25
1187  10848.75
1186.8  10864.688
1186.6  10851.25
1186.4  10795.625
1186.2  10780
1186  10810.938
1185.8  10764.688
1185.6  10743.438
1185.4  10751.875
1185.2  10752.5
1185  10695.625
1184.8  10728.125
1184.6  10864.063
1184.4  10777.5
1184.2  10694.063
1184  10825.938
1183.8  10794.375
1183.6  10699.688
1183.4  10785.938
1183.2  10585.625
1183  10603.438
1182.8  10574.375
1182.6  10720.313
1182.4  10608.125
1182.2  10664.688
1182  10627.188
1181.8  10529.375
1181.6  10553.438
1181.4  10483.75
1181.2  10488.75
1181  10483.438
1180.8  10480.938
1180.6  10472.5
1180.4  10553.75
1180.2  10441.25
1180  10503.125
1179.8  10490.625
1179.6  10377.813
1179.4  10492.188
1179.2  10493.125
1179  10497.188
1178.8  10543.125
1178.6  10430
1178.4  10490.938
1178.2  10480.313
1178  10480
1177.8  10369.063
1177.6  10435.938
1177.4  10369.375
1177.2  10405.625
1177  10425.938
1176.8  10577.5
1176.6  10460.313
1176.4  10621.25
1176.2  10559.063
1176  10486.563
1175.8  10464.375
1175.6  10573.438
1175.4  10405.313
1175.2  10493.75
1175  10509.688
1174.8  10440
1174.6  10478.125
1174.4  10466.875
1174.2  10474.063
1174  10495.625
1173.8  10555.625
1173.6  10557.188
1173.4  10502.5
1173.2  10555.313
1173  10455.625
1172.8  10400.938
1172.6  10571.563
1172.4  10460.938
1172.2  10560.625
1172  10565.313
1171.8  10620.313
1171.6  10508.125
1171.4  10557.188
1171.2  10571.875
1171  10563.125
1170.8  10560
1170.6  10509.688
1170.4  10505.625
1170.2  10596.563
1170  10595.625
1169.8  10501.563
1169.6  10600.313
1169.4  10576.563
1169.2  10567.5
1169  10620.313
1168.8  10571.875
1168.6  10471.563
1168.4  10579.688
1168.2  10572.5
1168  10642.5
1167.8  10596.563
1167.6  10574.375
1167.4  10855.938
1167.2  10553.75
1167  10587.5
1166.8  10561.875
1166.6  10572.813
1166.4  10621.875
1166.2  10584.688
1166  10684.375
1165.8  10569.375
1165.6  10714.375
1165.4  10716.875
1165.2  10596.25
1165  10640.938
1164.8  10603.75
1164.6  10675.938
1164.4  10639.063
1164.2  10603.125
1164  10583.75
1163.8  10619.688
1163.6  10748.438
1163.4  10604.063
1163.2  10613.125
1163  10654.375
1162.8  10570
1162.6  10699.688
1162.4  10612.5
1162.2  10617.5
1162  10660.313
1161.8  10526.563
1161.6  10691.563
1161.4  10600.313
1161.2  10655.625
1161  10564.688
1160.8  10627.5
1160.6  10628.125
1160.4  10691.25
1160.2  10719.063
1160  10726.25
1159.8  10740
1159.6  10719.688
1159.4  10608.75
1159.2  10605.625
1159  10639.375
1158.8  10729.688
1158.6  10725.938
1158.4  10748.438
1158.2  10578.75
1158  10679.688
1157.8  10738.125
1157.6  10702.813
1157.4  10673.125
1157.2  10694.688
1157  10745.625
1156.8  10655.313
1156.6  10711.25
1156.4  10785.938
1156.2  10579.375
1156  10712.813
1155.8  10730.938
1155.6  10681.25
1155.4  10851.875
1155.2  10625
1155  10689.375
1154.8  10669.688
1154.6  10694.375
1154.4  10745.313
1154.2  10656.25
1154  10670
1153.8  10687.5
1153.6  10618.438
1153.4  10658.75
1153.2  10665.625
1153  10523.75
1152.8  10550.313
1152.6  10649.063
1152.4  10671.563
1152.2  10631.875
1152  10635.938
1151.8  10588.75
1151.6  10537.5
1151.4  10573.75
1151.2  10581.875
1151  10567.5
1150.8  10543.75
1150.6  10579.688
1150.4  10576.563
1150.2  10600
1150  10639.688
1149.8  10628.125
1149.6  10553.438
1149.4  10629.063
1149.2  10566.25
1149  10613.75
1148.8  10582.188
1148.6  10469.375
1148.4  10523.438
1148.2  10486.25
1148  10631.25
1147.8  10521.25
1147.6  10543.438
1147.4  10430.313
1147.2  10482.5
1147  10535.625
1146.8  10473.125
1146.6  10379.063
1146.4  10350.625
1146.2  10561.563
1146  10446.563
1145.8  10491.563
1145.6  10397.188
1145.4  10350.625
1145.2  10389.063
1145  10359.063
1144.8  10438.125
1144.6  10333.125
1144.4  10344.063
1144.2  10252.813
1144  10225.938
1143.8  10236.563
1143.6  10340
1143.4  10242.188
1143.2  10227.5
1143  10159.375
1142.8  10118.75
1142.6  10120.938
1142.4  10203.438
1142.2  10044.688
1142  10058.438
1141.8  10102.5
1141.6  9960
1141.4  9978.75
1141.2  9961.5625
1141  9907.1875
1140.8  9852.8125
1140.6  9890.3125
1140.4  9934.0625
1140.2  9903.125
1140  9939.375
1139.8  9838.4375
1139.6  9773.4375
1139.4  9773.4375
1139.2  9688.4375
1139  9710
1138.8  9685.625
1138.6  9743.125
1138.4  9636.25
1138.2  9700.625
1138  9585.3125
1137.8  9555.625
1137.6  9592.8125
1137.4  9563.4375
1137.2  9558.125
1137  9462.5
1136.8  9495
1136.6  9445.3125
1136.4  9574.0625
1136.2  9528.4375
1136  9472.1875
1135.8  9342.5
1135.6  9398.125
1135.4  9389.0625
1135.2  9391.875
1135  9364.6875
1134.8  9343.75
1134.6  9315.3125
1134.4  9234.375
1134.2  9289.6875
1134  9297.1875
1133.8  9203.4375
1133.6  9258.4375
1133.4  9213.4375
1133.2  9180.9375
1133  9161.5625
1132.8  9245.3125
1132.6  9198.4375
1132.4  9160.9375
1132.2  9136.5625
1132  9097.1875
1131.8  9007.1875
1131.6  9125
1131.4  8959.375
1131.2  9045.9375
1131  9020.3125
1130.8  9009.0625
1130.6  9033.4375
1130.4  9030.625
1130.2  8970
1130  8892.1875
1129.8  8965
1129.6  8904.375
1129.4  9026.25
1129.2  9003.125
1129  8993.75
1128.8  8919.0625
1128.6  8974.375
1128.4  8975.3125
1128.2  8916.875
1128  8965.9375
1127.8  9045
1127.6  8920.625
1127.4  8863.75
1127.2  8953.75
1127  8933.4375
1126.8  8840.9375
1126.6  8824.6875
1126.4  8855.9375
1126.2  8959.0625
1126  8884.0625
1125.8  8990.625
1125.6  8853.75
1125.4  8899.0625
1125.2  8892.5
1125  8791.25
1124.8  8856.5625
1124.6  8965.625
1124.4  8896.5625
1124.2  8825
1124  8879.0625
1123.8  8940.9375
1123.6  8929.0625
1123.4  8940.625
1123.2  8907.5
1123  8931.5625
1122.8  8926.5625
1122.6  8945.9375
1122.4  8903.4375
1122.2  8886.5625
1122  8820
1121.8  8865.3125
1121.6  8842.8125
1121.4  8873.125
1121.2  8950.3125
1121  8878.125
1120.8  8949.6875
1120.6  8871.875
1120.4  8875.625
1120.2  8886.5625
1120  8847.8125
1119.8  8851.5625
1119.6  8875.9375
1119.4  8888.125
1119.2  8894.6875
1119  8866.875
1118.8  8932.8125
1118.6  8835.625
1118.4  8780.9375
1118.2  8898.4375
1118  8790.9375
1117.8  8891.5625
1117.6  8827.8125
1117.4  8961.875
1117.2  8856.5625
1117  8919.0625
1116.8  8780.9375
1116.6  8891.875
1116.4  8859.6875
1116.2  8872.5
1116  8958.125
1115.8  8900.625
1115.6  8956.875
1115.4  9001.875
1115.2  8973.75
1115  8864.375
1114.8  8908.4375
1114.6  8931.25
1114.4  8928.75
1114.2  9018.125
1114  8920
1113.8  8942.8125
1113.6  8969.375
1113.4  8915.3125
1113.2  8913.125
1113  8971.25
1112.8  8932.8125
1112.6  8905.3125
1112.4  8973.125
1112.2  8839.0625
1112  8941.5625
1111.8  8967.1875
1111.6  8897.1875
1111.4  9000.3125
1111.2  8964.6875
1111  8969.375
1110.8  8904.6875
1110.6  9057.5
1110.4  8981.25
1110.2  8946.25
1110  8985
1109.8  9013.4375
1109.6  8980.9375
1109.4  9040.9375
1109.2  8999.6875
1109  9000.625
1108.8  9024.375
1108.6  8950.625
1108.4  9061.875
1108.2  9004.375
1108  9030.625
1107.8  9080
1107.6  8964.0625
1107.4  8914.6875
1107.2  8999.0625
1107  9061.25
1106.8  8953.75
1106.6  9109.6875
1106.4  8993.125
1106.2  9055.9375
1106  9038.75
1105.8  9108.4375
1105.6  8984.0625
1105.4  9038.4375
1105.2  9030.625
1105  9084.6875
1104.8  9008.75
1104.6  9028.125
1104.4  9016.875
1104.2  9046.25
1104  8978.125
1103.8  9015.9375
1103.6  8974.375
1103.4  9074.6875
1103.2  9072.5
1103  9003.4375
1102.8  9065
1102.6  9067.1875
1102.4  9060.3125
1102.2  9061.5625
1102  9242.5
1101.8  9023.75
1101.6  9011.5625
1101.4  8979.0625
1101.2  9016.25
1101  9158.125
1100.8  9020.3125
1100.6  8970.9375
1100.4  8974.375
1100.2  9066.875
1100  9014.0625
1099.8  8977.8125
1099.6  9052.1875
1099.4  9030.3125
1099.2  9015.3125
1099  9030.9375
1098.8  9133.4375
1098.6  9125.9375
1098.4  9061.875
1098.2  8993.75
1098  9056.875
1097.8  9168.125
1097.6  9047.1875
1097.4  9075.625
1097.2  9006.5625
1097  9045.625
1096.8  9120.3125
1096.6  9045
1096.4  9034.375
1096.2  8997.5
1096  9107.8125
1095.8  9160
1095.6  9061.25
1095.4  9079.375
1095.2  9076.5625
1095  9094.0625
1094.8  8976.25
1094.6  9150.3125
1094.4  9283.125
1094.2  9162.1875
1094  9227.1875
1093.8  9251.875
1093.6  9320
1093.4  9321.875
1093.2  9328.125
1093  9433.75
1092.8  9282.1875
1092.6  9535
1092.4  9497.8125
1092.2  9562.8125
1092  9597.8125
1091.8  9558.125
1091.6  9639.0625
1091.4  9715.625
1091.2  9810.3125
1091  9923.4375
1090.8  9935.625
1090.6  10018.125
1090.4  10102.5
1090.2  10346.25
1090  10441.25
1089.8  10542.188
1089.6  10713.438
1089.4  10773.125
1089.2  11075.938
1089  11296.563
1088.8  11433.125
1088.6  11617.813
1088.4  11928.125
1088.2  12052.5
1088  12241.875
1087.8  12387.188
1087.6  12524.063
1087.4  12572.5
1087.2  12624.063
1087  12718.125
1086.8  12847.188
1086.6  12802.188
1086.4  12646.25
1086.2  12634.688
1086  12598.75
1085.8  12518.75
1085.6  12381.25
1085.4  12288.75
1085.2  12132.813
1085  11970
1084.8  11840.625
1084.6  11504.063
1084.4  11328.75
1084.2  11194.375
1084  10984.375
1083.8  10915.625
1083.6  10759.063
1083.4  10611.875
1083.2  10478.125
1083  10383.75
1082.8  10383.438
1082.6  10247.5
1082.4  10250.625
1082.2  10074.375
1082  10179.063
1081.8  10182.5
1081.6  10113.125
1081.4  10179.063
1081.2  10339.688
1081  10264.375
1080.8  10365.313
1080.6  10337.5
1080.4  10500.938
1080.2  10383.438
1080  10394.688
1079.8  10306.875
1079.6  10226.563
1079.4  10212.5
1079.2  10213.75
1079  9998.125
1078.8  9940.625
1078.6  9790.9375
1078.4  9604.375
1078.2  9441.25
1078  9283.4375
1077.8  9164.0625
1077.6  8961.875
1077.4  8758.4375
1077.2  8579.0625
1077  8455.625
1076.8  8280.625
1076.6  8101.875
1076.4  8059.375
1076.2  7934.375
1076  7823.125
1075.8  7673.4375
1075.6  7570.9375
1075.4  7550.9375
1075.2  7539.0625
1075  7500.625
1074.8  7429.0625
1074.6  7405.625
1074.4  7193.125
1074.2  7269.6875
1074  7212.8125
1073.8  7154.0625
1073.6  7171.25
1073.4  7131.25
1073.2  7239.6875
1073  7158.4375
1072.8  7093.125
1072.6  7116.5625
1072.4  7144.0625
1072.2  7112.8125
1072  7112.8125
1071.8  7098.125
1071.6  7220.3125
1071.4  7130
1071.2  7150
1071  7068.4375
1070.8  7128.125
1070.6  7078.4375
1070.4  7136.875
1070.2  7145.9375
1070  7178.125
1069.8  7075.3125
1069.6  7175.625
1069.4  7103.4375
1069.2  7239.375
1069  7100
1068.8  7149.6875
1068.6  7132.8125
1068.4  7166.5625
1068.2  7179.375
1068  7197.5
1067.8  7151.25
1067.6  7092.8125
1067.4  7081.25
1067.2  7091.875
1067  7092.5
1066.8  7111.5625
1066.6  7131.5625
1066.4  7204.0625
1066.2  7165.625
1066  7167.8125
1065.8  7049.0625
1065.6  7193.4375
1065.4  7181.25
1065.2  7134.0625
1065  7038.125
1064.8  7129.375
1064.6  7077.1875
1064.4  7164.0625
1064.2  7182.8125
1064  7249.6875
1063.8  7094.0625
1063.6  7063.4375
1063.4  7105
1063.2  7153.75
1063  7233.125
1062.8  7098.125
1062.6  7180.9375
1062.4  7164.0625
1062.2  7178.75
1062  7188.125
1061.8  7205.9375
1061.6  7184.6875
1061.4  7133.75
1061.2  7225.625
1061  7242.5
1060.8  7222.1875
1060.6  7186.5625
1060.4  7179.375
1060.2  7048.75
1060  7149.6875
1059.8  7114.6875
1059.6  7120.625
1059.4  6959.0625
1059.2  7099.0625
1059  7010.625
1058.8  7006.25
1058.6  6841.5625
1058.4  6908.75
1058.2  6891.25
1058  6837.8125
1057.8  6853.75
1057.6  6724.0625
1057.4  6805
1057.2  6706.5625
1057  6705
1056.8  6625.3125
1056.6  6671.875
1056.4  6655
1056.2  6611.25
1056  6670
1055.8  6637.5
1055.6  6630
1055.4  6643.4375
1055.2  6704.6875
1055  6707.1875
1054.8  6687.8125
1054.6  6711.875
1054.4  6607.8125
1054.2  6669.375
1054  6677.5
1053.8  6606.5625
1053.6  6641.5625
1053.4  6653.4375
1053.2  6688.125
1053  6631.25
1052.8  6653.4375
1052.6  6600
1052.4  6625.9375
1052.2  6565.625
1052  6477.1875
1051.8  6521.25
1051.6  6548.75
1051.4  6447.8125
1051.2  6538.75
1051  6446.5625
1050.8  6380.9375
1050.6  6438.4375
1050.4  6452.8125
1050.2  6453.75
1050  6336.875
1049.8  6358.75
1049.6  6307.8125
1049.4  6360.9375
1049.2  6390.9375
1049  6340.625
1048.8  6279.0625
1048.6  6389.6875
1048.4  6330
1048.2  6324.6875
1048  6297.1875
1047.8  6274.375
1047.6  6263.4375
1047.4  6270.625
1047.2  6334.6875
1047  6274.375
1046.8  6325.9375
1046.6  6386.25
1046.4  6298.125
1046.2  6373.4375
1046  6333.125
1045.8  6360.625
1045.6  6335.625
1045.4  6362.1875
1045.2  6316.5625
1045  6351.875
1044.8  6353.75
1044.6  6292.8125
1044.4  6247.1875
1044.2  6366.25
1044  6274.375
1043.8  6223.125
1043.6  6260.9375
1043.4  6308.4375
1043.2  6345
1043  6266.5625
1042.8  6273.125
1042.6  6380.3125
1042.4  6310.625
1042.2  6312.8125
1042  6270.9375
1041.8  6285.9375
1041.6  6308.125
1041.4  6334.6875
1041.2  6250.9375
1041  6368.75
1040.8  6376.25
1040.6  6246.25
1040.4  6377.5
1040.2  6240.9375
1040  6274.6875
1039.8  6246.5625
1039.6  6244.0625
1039.4  6324.0625
1039.2  6285
1039  6316.25
1038.8  6272.8125
1038.6  6268.75
1038.4  6283.125
1038.2  6282.1875
1038  6282.5
1037.8  6245.3125
1037.6  6241.875
1037.4  6291.875
1037.2  6280.9375
1037  6259.375
1036.8  6301.875
1036.6  6241.5625
1036.4  6283.75
1036.2  6316.25
1036  6274.375
1035.8  6287.8125
1035.6  6307.8125
1035.4  6340
1035.2  6303.75
1035  5763.4375
1034.8  6045
1034.6  6236.25
1034.4  6233.75
1034.2  6271.875
1034  6294.375
1033.8  6434.0625
1033.6  6336.25
1033.4  6282.1875
1033.2  5707.8125
1033  6102.1875
1032.8  6245.3125
1032.6  5608.75
1032.4  5925.3125
1032.2  6240
1032  6234.6875
1031.8  6275.3125
1031.6  6293.75
1031.4  6164.6875
1031.2  5570.625
1031  6195.9375
1030.8  6337.1875
1030.6  6377.8125
1030.4  6303.75
1030.2  6237.1875
1030  6297.5
1029.8  6214.0625
1029.6  6240.3125
1029.4  6277.5
1029.2  6297.1875
1029  6299.375
1028.8  6302.1875
1028.6  6290.625
1028.4  6264.375
1028.2  6362.5
1028  6266.25
1027.8  6312.1875
1027.6  6295.3125
1027.4  6300.9375
1027.2  6342.5
1027  6352.1875
1026.8  6307.5
1026.6  6276.5625
1026.4  6300.3125
1026.2  6211.5625
1026  6268.4375
1025.8  6329.375
1025.6  6236.5625
1025.4  6295.625
1025.2  6333.125
1025  6413.4375
1024.8  6330
1024.6  6203.75
1024.4  6368.75
1024.2  6280
1024  6288.75
1023.8  6293.125
1023.6  6335.3125
1023.4  6234.6875
1023.2  6310
1023  6266.25
1022.8  6200
1022.6  6395
1022.4  6261.875
1022.2  6262.8125
1022  6257.5
1021.8  6298.125
1021.6  6215.3125
1021.4  6282.1875
1021.2  6317.8125
1021  6267.5
1020.8  6300.9375
1020.6  6260
1020.4  6237.5
1020.2  6300
1020  6277.1875
1019.8  6269.6875
1019.6  6254.0625
1019.4  6325.625
1019.2  6340
1019  6379.0625
1018.8  6348.125
1018.6  6336.5625
1018.4  6288.75
1018.2  6329.6875
1018  6271.5625
1017.8  6245.3125
1017.6  6310.9375
1017.4  6435.625
1017.2  6309.0625
1017  6271.5625
1016.8  6242.1875
1016.6  6389.375
1016.4  6312.5
1016.2  6320
1016  6302.1875
1015.8  6349.375
1015.6  6350.9375
1015.4  6373.75
1015.2  6391.25
1015  6350.625
1014.8  6348.125
1014.6  6400.3125
1014.4  6345.625
1014.2  6356.25
1014  6323.4375
1013.8  6336.25
1013.6  6331.5625
1013.4  6386.25
1013.2  6367.5
1013  6439.6875
1012.8  6387.1875
1012.6  6304.0625
1012.4  6333.125
1012.2  6307.1875
1012  6459.0625
1011.8  6496.5625
1011.6  6285
1011.4  6472.1875
1011.2  6337.5
1011  6394.6875
1010.8  6413.75
1010.6  6387.5
1010.4  6424.6875
1010.2  6377.1875
1010  6395
1009.8  6392.1875
1009.6  6336.875
1009.4  6374.6875
1009.2  6360.625
1009  6421.875
1008.8  6324.0625
1008.6  6335.625
1008.4  6349.0625
1008.2  6330.3125
1008  6341.25
1007.8  6380
1007.6  6305
1007.4  6361.25
1007.2  6286.25
1007  6299.6875
1006.8  6378.125
1006.6  6265.9375
1006.4  6332.1875
1006.2  6333.4375
1006  6399.375
1005.8  6368.125
1005.6  6275.3125
1005.4  6309.375
1005.2  6234.375
1005  6262.5
1004.8  6276.875
1004.6  6239.375
1004.4  6325.9375
1004.2  6329.6875
1004  6336.25
1003.8  6342.8125
1003.6  6322.1875
1003.4  6374.0625
1003.2  6395.625
1003  6325.9375
1002.8  6356.5625
1002.6  6360
1002.4  6316.875
1002.2  6381.5625
1002  6430.3125
1001.8  6293.75
1001.6  6327.1875
1001.4  6348.125
1001.2  6294.0625
1001  6413.75
1000.8  6373.4375
1000.6  6464.6875
1000.4  6420.3125
1000.2  6423.125
1000  6314.375
999.8  6428.75
999.6  6431.875
999.4  6441.5625
999.2  6341.5625
999  6506.875
998.8  6507.5
998.6  6511.25
998.4  6553.4375
998.2  6506.875
998  6570.3125
997.8  6472.1875
997.6  6471.5625
997.4  6519.6875
997.2  6458.125
997  6549.0625
996.8  6609.0625
996.6  6622.5
996.4  6559.375
996.2  6629.6875
996  6617.1875
995.8  6590.9375
995.6  6635.3125
995.4  6698.125
995.2  6665
995  6584.375
994.8  6622.5
994.6  6613.75
994.4  6619.375
994.2  6637.8125
994  6617.8125
993.8  6586.25
993.6  6635.9375
993.4  6493.75
993.2  6508.75
993  6442.1875
992.8  6450.9375
992.6  6402.8125
992.4  6429.6875
992.2  6294.6875
992  6404.375
991.8  6329.375
991.6  6335.3125
991.4  6306.25
991.2  6370.625
991  6299.375
990.8  6321.875
990.6  6357.1875
990.4  6353.125
990.2  6326.875
990  6265
989.8  6330.625
989.6  6329.6875
989.4  6292.1875
989.2  6274.6875
989  6255
988.8  6411.5625
988.6  6304.375
988.4  6304.6875
988.2  6193.125
988  6349.6875
987.8  6384.375
987.6  6398.125
987.4  6285.625
987.2  6210.3125
987  6158.4375
986.8  6256.5625
986.6  6239.375
986.4  6273.75
986.2  6305.3125
986  6153.75
985.8  6177.8125
985.6  6151.5625
985.4  6335.3125
985.2  6277.8125
985  6222.5
984.8  6148.4375
984.6  6248.4375
984.4  6261.25
984.2  6250.3125
984  6197.8125
983.8  6180.3125
983.6  6145.3125
983.4  6205.9375
983.2  6274.375
983  6239.0625
982.8  6167.8125
982.6  6300
982.4  6235.3125
982.2  6220.625
982  6224.375
981.8  6292.1875
981.6  6199.0625
981.4  6277.1875
981.2  6230.9375
981  6255.9375
980.8  6200.9375
980.6  6270.3125
980.4  6280.625
980.2  6341.875
980  6265.3125
979.8  6361.25
979.6  6306.875
979.4  6305.9375
979.2  6278.75
979  6394.0625
978.8  6358.125
978.6  6474.6875
978.4  6365.9375
978.2  6426.5625
978  6594.6875
977.8  6636.875
977.6  6654.375
977.4  6812.8125
977.2  6830.9375
977  6897.8125
976.8  6966.5625
976.6  7057.5
976.4  7085.9375
976.2  7178.75
976  7358.125
975.8  7367.1875
975.6  7373.125
975.4  7501.25
975.2  7575.625
975  7581.25
974.8  7546.5625
974.6  7573.125
974.4  7585.625
974.2  7520
974  7417.5
973.8  7295.3125
973.6  7110.625
973.4  7090.9375
973.2  6863.4375
973  6857.5
972.8  6733.125
972.6  6687.8125
972.4  6604.375
972.2  6509.0625
972  6455.3125
971.8  6382.1875
971.6  6373.125
971.4  6338.75
971.2  6288.4375
971  6280.625
970.8  6216.875
970.6  6171.25
970.4  6107.8125
970.2  6175.625
970  6164.375
969.8  6083.75
969.6  6060.625
969.4  6054.375
969.2  6109.6875
969  6025.3125
968.8  5966.25
968.6  6088.4375
968.4  5977.1875
968.2  5977.8125
968  5924.6875
967.8  5930.3125
967.6  5923.4375
967.4  5947.1875
967.2  5872.1875
967  5825.9375
966.8  5847.1875
966.6  5859.0625
966.4  5814.6875
966.2  5755.3125
966  5770.9375
965.8  5719.6875
965.6  5764.0625
965.4  5684.6875
965.2  5600.3125
965  5655.9375
964.8  5600.625
964.6  5581.5625
964.4  5638.125
964.2  5631.25
964  5562.8125
963.8  5542.5
963.6  5511.875
963.4  5530
963.2  5575.625
963  5591.25
962.8  5582.5
962.6  5617.1875
962.4  5628.75
962.2  5567.5
962  5568.4375
961.8  5604.6875
961.6  5649.0625
961.4  5610.3125
961.2  5543.4375
961  5568.75
960.8  5586.875
960.6  5520
960.4  5531.25
960.2  5498.4375
960  5547.8125
959.8  5567.1875
959.6  5585.9375
959.4  5522.5
959.2  5545.625
959  5608.125
958.8  5567.8125
958.6  5547.5
958.4  5497.1875
958.2  5556.25
958  5603.125
957.8  5521.875
957.6  5504.6875
957.4  5543.75
957.2  5583.75
957  5476.25
956.8  5513.125
956.6  5589.375
956.4  5601.25
956.2  5470
956  5585.625
955.8  5530.9375
955.6  5442.8125
955.4  5506.25
955.2  5519.375
955  5568.4375
954.8  5501.875
954.6  5606.875
954.4  5579.0625
954.2  5588.125
954  5528.4375
953.8  5577.5
953.6  5506.25
953.4  5487.5
953.2  5497.5
953  5558.4375
952.8  5515.3125
952.6  5610
952.4  5489.375
952.2  5490
952  5470.3125
951.8  5530
951.6  5457.1875
951.4  5499.6875
951.2  5501.875
951  5564.6875
950.8  5596.5625
950.6  5519.375
950.4  5510.9375
950.2  5573.4375
950  5594.375
949.8  5562.5
949.6  5581.5625
949.4  5481.25
949.2  5507.8125
949  5519.6875
948.8  5463.75
948.6  5523.125
948.4  5561.5625
948.2  5495.9375
948  5545.625
947.8  5536.5625
947.6  5520.3125
947.4  5515
947.2  5475.3125
947  5597.1875
946.8  5441.5625
946.6  5533.125
946.4  5498.4375
946.2  5525
946  5478.4375
945.8  5471.5625
945.6  5485.3125
945.4  5490.3125
945.2  5444.0625
945  5441.25
944.8  5489.375
944.6  5537.5
944.4  5542.8125
944.2  5485
944  5482.8125
943.8  5475.625
943.6  5604.375
943.4  5522.8125
943.2  5560.9375
943  5590.625
942.8  5461.25
942.6  5485.625
942.4  5607.8125
942.2  5522.5
942  5463.75
941.8  5543.75
941.6  5461.25
941.4  5478.125
941.2  5430.625
941  5548.75
940.8  5488.4375
940.6  5545
940.4  5493.4375
940.2  5544.6875
940  5469.6875
939.8  5519.375
939.6  5532.1875
939.4  5570.3125
939.2  5537.8125
939  5553.125
938.8  5490.9375
938.6  5521.875
938.4  5470.3125
938.2  5562.1875
938  5480.3125
937.8  5495.9375
937.6  5518.75
937.4  5532.5
937.2  5565.625
937  5519.0625
936.8  5591.875
936.6  5505.625
936.4  5518.125
936.2  5467.5
936  5494.0625
935.8  5537.1875
935.6  5605.3125
935.4  5428.125
935.2  5559.6875
935  5565.9375
934.8  5477.1875
934.6  5570.9375
934.4  5547.5
934.2  5566.875
934  5590.9375
933.8  5476.5625
933.6  5512.8125
933.4  5502.1875
933.2  5516.875
933  5503.125
932.8  5526.25
932.6  5511.875
932.4  5534.375
932.2  5582.5
932  5485.625
931.8  5504.0625
931.6  5539.0625
931.4  5470.9375
931.2  5492.5
931  5501.875
930.8  5495
930.6  5468.125
930.4  5515.9375
930.2  5543.4375
930  5507.5
929.8  5459.6875
929.6  5448.75
929.4  5593.75
929.2  5486.5625
929  5539.0625
928.8  5574.375
928.6  5528.75
928.4  5512.5
928.2  5554.375
928  5519.0625
927.8  5576.25
927.6  5523.75
927.4  5501.5625
927.2  5567.5
927  5485.9375
926.8  5549.0625
926.6  5521.25
926.4  5460.3125
926.2  5467.5
926  5503.4375
925.8  5532.5
925.6  5514.375
925.4  5509.0625
925.2  5518.4375
925  5543.4375
924.8  5521.25
924.6  5422.5
924.4  5539.6875
924.2  5547.5
924  5514.0625
923.8  5481.25
923.6  5598.75
923.4  5547.5
923.2  5478.4375
923  5405
922.8  5518.75
922.6  5469.6875
922.4  5397.5
922.2  5417.1875
922  5492.1875
921.8  5462.1875
921.6  5396.5625
921.4  5499.6875
921.2  5453.75
921  5416.5625
920.8  5396.875
920.6  5433.125
920.4  5478.75
920.2  5408.4375
920  5505.3125
919.8  5480
919.6  5529.375
919.4  5464.375
919.2  5394.0625
919  5545.9375
918.8  5473.75
918.6  5413.125
918.4  5550.9375
918.2  5429.6875
918  5497.1875
917.8  5527.5
917.6  5462.8125
917.4  5396.875
917.2  5432.1875
917  5470.3125
916.8  5492.8125
916.6  5487.1875
916.4  5400.3125
916.2  5460.625
916  5380.9375
915.8  5498.125
915.6  5406.875
915.4  5421.875
915.2  5473.4375
915  5465.9375
914.8  5412.5
914.6  5473.125
914.4  5386.875
914.2  5474.375
914  5388.125
913.8  5377.1875
913.6  5469.6875
913.4  5443.125
913.2  5435
913  5362.5
912.8  5496.875
912.6  5466.875
912.4  5504.6875
912.2  5499.6875
912  5493.125
911.8  5443.125
911.6  5478.75
911.4  5419.6875
911.2  5466.5625
911  5367.1875
910.8  5409.375
910.6  5381.875
910.4  5430
910.2  5399.375
910  5408.125
909.8  5373.4375
909.6  5501.25
909.4  5384.375
909.2  5444.375
909  5455
908.8  5416.5625
908.6  5492.8125
908.4  5579.375
908.2  5478.75
908  5481.875
907.8  5423.4375
907.6  5450.3125
907.4  5507.5
907.2  5380.9375
907  5444.0625
906.8  5463.75
906.6  5426.5625
906.4  5436.5625
906.2  5502.8125
906  5518.75
905.8  5460.625
905.6  5460
905.4  5495.9375
905.2  5469.0625
905  5507.5
904.8  5529.375
904.6  5439.0625
904.4  5500
904.2  5482.8125
904  5396.875
903.8  5388.75
903.6  5468.125
903.4  5435.625
903.2  5445.9375
903  5510.3125
902.8  5357.1875
902.6  5514.6875
902.4  5465.9375
902.2  5442.8125
902  5405.3125
901.8  5434.0625
901.6  5413.75
901.4  5415.9375
901.2  5480
901  5520
900.8  5434.375
900.6  5347.8125
900.4  5424.375
900.2  5448.75
900  5418.4375
899.8  5467.8125
899.6  5452.8125
899.4  5506.25
899.2  5521.875
899  5462.5
898.8  5510
898.6  5465.625
898.4  5449.0625
898.2  5488.125
898  5478.75
897.8  5452.5
897.6  5454.375
897.4  5441.5625
897.2  5513.4375
897  5395
896.8  5453.125
896.6  5394.0625
896.4  5470
896.2  5477.1875
896  5486.5625
895.8  5420.9375
895.6  5420.625
895.4  5392.8125
895.2  5418.75
895  5367.1875
894.8  5444.6875
894.6  5412.5
894.4  5451.875
894.2  5413.75
894  5420.9375
893.8  5459.375
893.6  5447.5
893.4  5386.25
893.2  5382.5
893  5422.5
892.8  5399.0625
892.6  5386.25
892.4  5419.375
892.2  5431.5625
892  5481.5625
891.8  5505.3125
891.6  5413.125
891.4  5413.4375
891.2  5460.3125
891  5425.625
890.8  5448.125
890.6  5424.375
890.4  5376.5625
890.2  5504.0625
890  5447.5
889.8  5448.4375
889.6  5391.875
889.4  5330.625
889.2  5416.875
889  5455.9375
888.8  5404.0625
888.6  5430.625
888.4  5444.0625
888.2  5426.5625
888  5338.125
887.8  5402.8125
887.6  5404.0625
887.4  5449.375
887.2  5397.8125
887  5499.375
886.8  5384.0625
886.6  5429.0625
886.4  5469.375
886.2  5462.8125
886  5385.9375
885.8  5445
885.6  5431.25
885.4  5397.1875
885.2  5417.1875
885  5424.0625
884.8  5464.6875
884.6  5440
884.4  5369.0625
884.2  5404.6875
884  5368.75
883.8  5313.125
883.6  5380.3125
883.4  5401.5625
883.2  5380.625
883  5416.875
882.8  5335.3125
882.6  5366.875
882.4  5397.5
882.2  5432.1875
882  5383.125
881.8  5406.5625
881.6  5398.75
881.4  5376.875
881.2  5385.625
881  5405
880.8  5353.125
880.6  5399.375
880.4  5389.375
880.2  5467.8125
880  5378.4375
879.8  5348.4375
879.6  5334.0625
879.4  5374.0625
879.2  5354.6875
879  5379.0625
878.8  5315.625
878.6  5353.4375
878.4  5333.4375
878.2  5318.75
878  5406.5625
877.8  5307.8125
877.6  5466.875
877.4  5480.9375
877.2  5410
877  5298.75
876.8  5377.5
876.6  5372.8125
876.4  5422.1875
876.2  5345
876  5341.875
875.8  5340.3125
875.6  5420.3125
875.4  5283.125
875.2  5362.1875
875  5311.5625
874.8  5326.25
874.6  5311.25
874.4  5329.0625
874.2  5273.4375
874  5404.0625
873.8  5331.875
873.6  5355.9375
873.4  5396.875
873.2  5430.625
873  5406.25
872.8  5240.3125
872.6  5364.6875
872.4  5385.3125
872.2  5380.625
872  5383.75
871.8  5335.625
871.6  5405.625
871.4  5358.4375
871.2  5379.0625
871  5301.5625
870.8  5378.75
870.6  5370.9375
870.4  5340
870.2  5278.125
870  5413.75
869.8  5366.25
869.6  5391.875
869.4  5395.625
869.2  5351.875
869  5350.3125
868.8  5350.9375
868.6  5336.25
868.4  5359.6875
868.2  5404.0625
868  5400.625
867.8  5341.25
867.6  5413.4375
867.4  5403.4375
867.2  5344.375
867  5357.8125
866.8  5290.3125
866.6  5315.3125
866.4  5272.8125
866.2  5399.0625
866  5297.1875
865.8  5334.6875
865.6  5408.75
865.4  5387.8125
865.2  5331.25
865  5312.8125
864.8  5334.0625
864.6  5340.3125
864.4  5357.5
864.2  5320.3125
864  5406.25
863.8  5307.5
863.6  5327.1875
863.4  5354.375
863.2  5391.875
863  5312.1875
862.8  5236.5625
862.6  5355.3125
862.4  5386.25
862.2  5328.125
862  5395.9375
861.8  5303.4375
861.6  5311.5625
861.4  5363.4375
861.2  5303.125
861  5336.25
860.8  5373.75
860.6  5320.9375
860.4  5308.125
860.2  5258.125
860  5344.0625
859.8  5339.6875
859.6  5328.4375
859.4  5338.125
859.2  5377.1875
859  5281.25
858.8  5309.6875
858.6  5371.25
858.4  5392.5
858.2  5355.625
858  5386.875
857.8  5412.8125
857.6  5325
857.4  5296.25
857.2  5341.5625
857  5368.75
856.8  5412.8125
856.6  5371.25
856.4  5335.625
856.2  5345.9375
856  5433.4375
855.8  5341.5625
855.6  5324.375
855.4  5306.25
855.2  5367.1875
855  5363.125
854.8  5345.3125
854.6  5301.875
854.4  5405.9375
854.2  5316.5625
854  5338.4375
853.8  5358.75
853.6  5390.625
853.4  5377.8125
853.2  5337.5
853  5327.1875
852.8  5355.9375
852.6  5281.875
852.4  5360.9375
852.2  5328.4375
852  5397.1875
851.8  5338.4375
851.6  5338.75
851.4  5371.25
851.2  5466.875
851  5405.625
850.8  5383.125
850.6  5377.5
850.4  5345
850.2  5386.5625
850  5302.1875
849.8  5357.8125
849.6  5327.5
849.4  5308.4375
849.2  5384.375
849  5372.1875
848.8  5384.0625
848.6  5370.3125
848.4  5404.0625
848.2  5373.75
848  5393.4375
847.8  5356.25
847.6  5363.125
847.4  5370.3125
847.2  5329.0625
847  5351.875
846.8  5384.6875
846.6  5276.875
846.4  5414.6875
846.2  5380.625
846  5401.5625
845.8  5326.25
845.6  5357.1875
845.4  5395.9375
845.2  5336.875
845  5380.625
844.8  5409.375
844.6  5395.625
844.4  5363.125
844.2  5355.3125
844  5448.125
843.8  5383.125
843.6  5310.3125
843.4  5335.625
843.2  5415.625
843  5374.6875
842.8  5355.3125
842.6  5335.3125
842.4  5392.1875
842.2  5383.75
842  5402.1875
841.8  5386.25
841.6  5397.1875
841.4  5331.25
841.2  5405.9375
841  5383.4375
840.8  5402.5
840.6  5322.1875
840.4  5373.125
840.2  5354.375
840  5345.3125
839.8  5444.0625
839.6  5355.9375
839.4  5321.875
839.2  5386.5625
839  5421.5625
838.8  5362.1875
838.6  5399.375
838.4  5326.5625
838.2  5401.25
838  5358.125
837.8  5398.4375
837.6  5391.875
837.4  5355.625
837.2  5416.5625
837  5383.4375
836.8  5428.4375
836.6  5320.9375
836.4  5441.5625
836.2  5305.9375
836  5426.875
835.8  5264.375
835.6  5401.5625
835.4  5422.1875
835.2  5428.75
835  5406.25
834.8  5420.625
834.6  5423.4375
834.4  5495
834.2  5456.875
834  5390.625
833.8  5550
833.6  5485.3125
833.4  5530.9375
833.2  5474.6875
833  5522.8125
832.8  5556.875
832.6  5545.625
832.4  5521.875
832.2  5504.375
832  5536.875
831.8  5598.125
831.6  5595
831.4  5602.8125
831.2  5555.3125
831  5614.375
830.8  5668.75
830.6  5673.125
830.4  5645.9375
830.2  5674.0625
830  5744.6875
829.8  5712.5
829.6  5733.4375
829.4  5624.6875
829.2  5692.1875
829  5694.375
828.8  5775
828.6  5711.875
828.4  5750.625
828.2  5762.1875
828  5798.75
827.8  5705.625
827.6  5700.9375
827.4  5682.8125
827.2  5662.8125
827  5771.5625
826.8  5671.875
826.6  5727.1875
826.4  5722.1875
826.2  5695.9375
826  5636.875
825.8  5659.375
825.6  5637.1875
825.4  5637.5
825.2  5576.5625
825  5557.8125
824.8  5504.0625
824.6  5515
824.4  5630.625
824.2  5558.4375
824  5532.5
823.8  5522.5
823.6  5523.4375
823.4  5546.25
823.2  5494.0625
823  5472.5
822.8  5451.25
822.6  5439.6875
822.4  5410.625
822.2  5408.125
822  5366.25
821.8  5437.5
821.6  5331.25
821.4  5355.3125
821.2  5365.625
821  5349.0625
820.8  5443.4375
820.6  5307.5
820.4  5310.9375
820.2  5381.875
820  5332.8125
819.8  5354.0625
819.6  5310.625
819.4  5320
819.2  5305.625
819  5266.5625
818.8  5269.0625
818.6  5353.125
818.4  5240.9375
818.2  5345.625
818  5208.4375
817.8  5199.0625
817.6  5272.1875
817.4  5207.8125
817.2  5206.875
817  5204.375
816.8  5250.3125
816.6  5295.9375
816.4  5230.9375
816.2  5258.125
816  5204.375
815.8  5219.6875
815.6  5207.5
815.4  5215.3125
815.2  5266.5625
815  5167.8125
814.8  5228.75
814.6  5165.625
814.4  5249.0625
814.2  5231.875
814  5178.4375
813.8  5117.5
813.6  5235.625
813.4  5213.125
813.2  5147.8125
813  5211.5625
812.8  5184.0625
812.6  5136.25
812.4  5120.3125
812.2  5158.125
812  5119.0625
811.8  5221.875
811.6  5164.375
811.4  5151.5625
811.2  5120.9375
811  5137.5
810.8  5085.3125
810.6  5106.5625
810.4  5146.875
810.2  5161.25
810  5108.4375
809.8  5116.875
809.6  5119.6875
809.4  5219.6875
809.2  5171.5625
809  5138.125
808.8  5130.625
808.6  5183.75
808.4  5115.3125
808.2  5108.125
808  5143.75
807.8  5068.4375
807.6  5117.5
807.4  5090.625
807.2  5141.25
807  5133.75
806.8  5127.5
806.6  5054.0625
806.4  5059.375
806.2  5107.5
806  5155.9375
805.8  5127.5
805.6  5148.75
805.4  5141.25
805.2  5113.75
805  5141.25
804.8  5124.0625
804.6  5157.8125
804.4  5175
804.2  5074.0625
804  5140
803.8  5156.875
803.6  5113.125
803.4  5158.75
803.2  5097.1875
803  5124.375
802.8  5154.0625
802.6  5020.625
802.4  5102.8125
802.2  5046.875
802  5067.5
801.8  5091.875
801.6  5122.5
801.4  4983.125
801.2  5106.5625
801  5064.6875
800.8  5174.375
800.6  5129.6875
800.4  5084.6875
800.2  5138.75
800  5110.3125
799.8  5040.3125
799.6  5113.4375
799.4  5111.875
799.2  5051.5625
799  5108.75
798.8  5082.5
798.6  5107.1875
798.4  5097.8125
798.2  5139.375
798  5157.5
797.8  5055.9375
797.6  5120.625
797.4  5185.9375
797.2  5160.9375
797  5102.5
796.8  5082.5
796.6  5089.6875
796.4  5141.25
796.2  5185.625
796  5154.6875
795.8  5162.1875
795.6  5094.6875
795.4  5146.25
795.2  5050.9375
795  5105.3125
794.8  5098.75
794.6  5130
794.4  5079.0625
794.2  5034.6875
794  5016.5625
793.8  5053.75
793.6  5096.875
793.4  5062.8125
793.2  5106.875
793  5059.6875
792.8  5011.875
792.6  5076.25
792.4  5033.4375
792.2  5087.8125
792  5088.125
791.8  5060
791.6  5039.6875
791.4  5003.75
791.2  5077.1875
791  5105.625
790.8  5077.1875
790.6  5066.5625
790.4  5073.75
790.2  5090.9375
790  5092.8125
789.8  4957.1875
789.6  5047.1875
789.4  5027.1875
789.2  4991.875
789  5076.25
788.8  5084.375
788.6  5066.5625
788.4  5094.0625
788.2  5047.1875
788  5123.4375
787.8  5123.4375
787.6  5067.5
787.4  5066.5625
787.2  5065.9375
787  5066.875
786.8  5105.3125
786.6  5057.1875
786.4  5006.875
786.2  5138.4375
786  5097.5
785.8  5116.25
785.6  5041.5625
785.4  5083.4375
785.2  5131.5625
785  5104.6875
784.8  5070
784.6  5077.8125
784.4  5086.5625
784.2  5113.4375
784  5133.4375
783.8  5082.8125
783.6  5098.125
783.4  5075.9375
783.2  5099.375
783  5078.4375
782.8  5081.5625
782.6  5002.1875
782.4  5093.125
782.2  5116.5625
782  5118.75
781.8  5105.3125
781.6  5185.3125
781.4  5133.4375
781.2  5120.3125
781  5116.5625
780.8  5092.8125
780.6  5129.0625
780.4  5089.375
780.2  5077.1875
780  5148.125
779.8  5204.6875
779.6  5106.25
779.4  5120.625
779.2  5054.6875
779  5090.9375
778.8  5078.4375
778.6  5060
778.4  5130
778.2  5117.5
778  5041.25
777.8  5084.0625
777.6  5083.125
777.4  5026.875
777.2  5048.75
777  5049.6875
776.8  5087.1875
776.6  5061.5625
776.4  5111.875
776.2  5048.4375
776  5124.0625
775.8  5017.5
775.6  5082.5
775.4  5196.25
775.2  5034.0625
775  5056.25
774.8  5130.625
774.6  5034.375
774.4  5049.375
774.2  5022.5
774  5040.625
773.8  5059.6875
773.6  4999.0625
773.4  5125.625
773.2  5047.5
773  5135.9375
772.8  5108.125
772.6  5008.75
772.4  5074.0625
772.2  5029.375
772  5028.4375
771.8  5035.9375
771.6  5073.125
771.4  5007.8125
771.2  5125.625
771  5000
770.8  5087.1875
770.6  5130
770.4  5127.1875
770.2  5105
770  5025.3125
769.8  5057.8125
769.6  5075
769.4  5084.6875
769.2  5004.6875
769  5047.1875
768.8  5051.5625
768.6  5045.9375
768.4  5103.125
768.2  5142.1875
768  5072.5
767.8  5028.4375
767.6  5086.5625
767.4  5005.625
767.2  5080.3125
767  5017.8125
766.8  5036.5625
766.6  5202.8125
766.4  4987.5
766.2  5076.25
766  5018.4375
765.8  5057.5
765.6  5010.3125
765.4  5104.6875
765.2  5051.5625
765  5100.3125
764.8  4999.0625
764.6  5114.0625
764.4  5110.9375
764.2  5052.5
764  5081.25
763.8  5105.9375
763.6  5089.375
763.4  5083.4375
763.2  5039.0625
763  5110.625
762.8  5141.875
762.6  5158.4375
762.4  5125.625
762.2  5116.25
762  5100.625
761.8  5173.75
761.6  5144.375
761.4  5142.8125
761.2  5124.0625
761  5086.25
760.8  5139.0625
760.6  5163.75
760.4  5154.375
760.2  5257.5
760  5174.375
759.8  5155.3125
759.6  5204.375
759.4  5193.4375
759.2  5253.125
759  5216.25
758.8  5131.5625
758.6  5258.125
758.4  5219.6875
758.2  5178.4375
758  5172.1875
757.8  5147.5
757.6  5145
757.4  5111.875
757.2  5197.5
757  5090.3125
756.8  5174.375
756.6  5202.5
756.4  5065.9375
756.2  5064.375
756  5045.9375
755.8  5046.5625
755.6  5075.3125
755.4  5108.4375
755.2  5063.125
755  5074.375
754.8  5075.9375
754.6  5097.1875
754.4  5036.25
754.2  5055.625
754  4993.75
753.8  5070.3125
753.6  5011.875
753.4  5027.1875
753.2  5023.4375
753  5077.1875
752.8  5069.6875
752.6  5019.375
752.4  5170
752.2  5055.625
752  5085.625
751.8  5040.9375
751.6  5052.5
751.4  5035.625
751.2  5032.8125
751  5014.6875
750.8  5033.75
750.6  5069.0625
750.4  5088.4375
750.2  5013.4375
750  5019.375
749.8  5069.6875
749.6  5036.5625
749.4  5093.125
749.2  5060
749  5052.5
748.8  4998.4375
748.6  5104.0625
748.4  5021.25
748.2  5026.875
748  5078.4375
747.8  5119.6875
747.6  5025.9375
747.4  5115.3125
747.2  5007.1875
747  5074.375
746.8  5055
746.6  5046.25
746.4  5081.875
746.2  5084.375
746  5090
745.8  4994.375
745.6  5081.5625
745.4  4995.625
745.2  4955.9375
745  5043.75
744.8  5017.5
744.6  5113.75
744.4  5038.4375
744.2  4983.75
744  5053.125
743.8  4973.4375
743.6  5055
743.4  5004.375
743.2  5038.125
743  5117.8125
742.8  5028.125
742.6  5038.75
742.4  5028.125
742.2  5085
742  5044.0625
741.8  5058.4375
741.6  4995
741.4  5033.125
741.2  5086.5625
741  5023.125
740.8  5030.9375
740.6  5074.6875
740.4  5026.25
740.2  4989.375
740  5090.3125
739.8  5022.5
739.6  5100.9375
739.4  5053.4375
739.2  5044.6875
739  5056.5625
738.8  5019.375
738.6  5035
738.4  5064.0625
738.2  5110.9375
738  5089.6875
737.8  5049.375
737.6  5029.0625
737.4  5107.1875
737.2  5047.1875
737  5133.75
736.8  5038.125
736.6  5073.125
736.4  5145
736.2  5055.9375
736  5038.75
735.8  5127.8125
735.6  5117.1875
735.4  5027.1875
735.2  5131.25
735  5106.25
734.8  5098.4375
734.6  5082.1875
734.4  5045.9375
734.2  5066.25
734  5073.75
733.8  5069.375
733.6  5022.5
733.4  5044.375
733.2  5047.5
733  5121.5625
732.8  5132.8125
732.6  5060
732.4  5095.3125
732.2  5101.5625
732  5097.8125
731.8  5095.3125
731.6  5070
731.4  5133.4375
731.2  5107.5
731  5100
730.8  5060.3125
730.6  5063.75
730.4  5069.0625
730.2  5118.75
730  5044.375
729.8  5100
729.6  5115.625
729.4  5059.6875
729.2  5079.0625
729  5173.4375
728.8  5040.9375
728.6  5042.8125
728.4  5104.375
728.2  5073.75
728  5093.125
727.8  5072.8125
727.6  5140.625
727.4  5143.4375
727.2  5030.3125
727  5147.1875
726.8  5099.0625
726.6  5142.1875
726.4  5051.25
726.2  5069.0625
726  5133.125
725.8  5097.8125
725.6  5047.5
725.4  5107.1875
725.2  5101.5625
725  5185.625
724.8  5164.0625
724.6  5133.125
724.4  5057.5
724.2  5125
724  5124.0625
723.8  5121.875
723.6  5174.375
723.4  5135
723.2  5130
723  5113.75
722.8  5099.375
722.6  5101.5625
722.4  5142.5
722.2  5182.8125
722  5148.75
721.8  5079.6875
721.6  5194.0625
721.4  5158.75
721.2  5179.6875
721  5155.9375
720.8  5258.125
720.6  5165.625
720.4  5187.1875
720.2  5226.25
720  5241.875
719.8  5253.125
719.6  5283.125
719.4  5342.1875
719.2  5260.9375
719  5295.625
718.8  5254.0625
718.6  5291.875
718.4  5297.1875
718.2  5346.5625
718  5348.75
717.8  5324.375
717.6  5350
717.4  5315.3125
717.2  5363.4375
717  5325.625
716.8  5389.6875
716.6  5254.0625
716.4  5378.4375
716.2  5350
716  5355.9375
715.8  5251.5625
715.6  5285
715.4  5200.625
715.2  5267.1875
715  5220.3125
714.8  5181.5625
714.6  5165.625
714.4  5105.3125
714.2  5105.9375
714  5076.875
713.8  5064.375
713.6  5110.3125
713.4  5076.875
713.2  5040.9375
713  5070
712.8  5069.375
712.6  5054.6875
712.4  5006.5625
712.2  4983.75
712  5106.25
711.8  5062.8125
711.6  5071.875
711.4  5021.25
711.2  5110.625
711  5116.25
710.8  5077.5
710.6  5048.75
710.4  4970.625
710.2  5059.375
710  5078.125
709.8  5140.3125
709.6  5169.375
709.4  5121.875
709.2  5221.875
709  5205.3125
708.8  5222.1875
708.6  5244.6875
708.4  5322.5
708.2  5390.9375
708  5485.9375
707.8  5460.9375
707.6  5523.125
707.4  5653.4375
707.2  5744.6875
707  5809.0625
706.8  5889.6875
706.6  6064.6875
706.4  6052.5
706.2  6240.625
706  6341.25
705.8  6428.75
705.6  6545.9375
705.4  6678.4375
705.2  6763.125
705  6851.25
704.8  6880.9375
704.6  6891.875
704.4  6852.8125
704.2  6934.6875
704  6840.625
703.8  6806.5625
703.6  6508.125
703.4  6433.75
703.2  6393.125
703  6185
702.8  6083.125
702.6  5808.75
702.4  5778.75
702.2  5645
702  5477.8125
701.8  5437.5
701.6  5312.8125
701.4  5297.5
701.2  5239.6875
701  5260.9375
700.8  5066.875
700.6  5089.375
700.4  5100.625
700.2  4990.9375
700  4960.9375
699.8  5035.9375
699.6  4919.6875
699.4  4940.3125
699.2  4910.625
699  4950
698.8  4956.5625
698.6  4842.5
698.4  4866.875
698.2  4821.25
698  4897.1875
697.8  4823.4375
697.6  4920.9375
697.4  4897.8125
697.2  4837.8125
697  4871.25
696.8  4885.9375
696.6  4839.6875
696.4  4855
696.2  4907.5
696  4880.9375
695.8  4869.6875
695.6  4923.125
695.4  4930.3125
695.2  4930
695  4948.75
694.8  4915.3125
694.6  4945.3125
694.4  4917.1875
694.2  4946.875
694  4810.625
693.8  4847.8125
693.6  4882.1875
693.4  4856.875
693.2  4889.0625
693  4914.6875
692.8  4885.3125
692.6  4974.375
692.4  4837.1875
692.2  4838.4375
692  4847.1875
691.8  4849.375
691.6  4778.125
691.4  4782.1875
691.2  4800.9375
691  4747.1875
690.8  4693.4375
690.6  4791.5625
690.4  4735.3125
690.2  4713.75
690  4729.375
689.8  4796.875
689.6  4766.25
689.4  4770.3125
689.2  4808.75
689  4739.375
688.8  4763.75
688.6  4743.125
688.4  4773.4375
688.2  4780
688  4803.75
687.8  4714.375
687.6  4779.6875
687.4  4785.625
687.2  4768.75
687  4754.6875
686.8  4863.4375
686.6  4808.75
686.4  4853.125
686.2  4856.875
686  4866.5625
685.8  4902.8125
685.6  4856.5625
685.4  4925.9375
685.2  4781.5625
685  4845.3125
684.8  4895.9375
684.6  4791.25
684.4  4783.75
684.2  4800
684  4847.5
683.8  4744.6875
683.6  4751.5625
683.4  4743.75
683.2  4754.0625
683  4723.125
682.8  4718.125
682.6  4715.3125
682.4  4737.8125
682.2  4712.5
682  4677.1875
681.8  4695.3125
681.6  4677.1875
681.4  4640.9375
681.2  4701.25
681  4663.75
680.8  4729.375
680.6  4662.8125
680.4  4705.625
680.2  4738.75
680  4753.4375
679.8  4781.25
679.6  4637.8125
679.4  4732.1875
679.2  4792.8125
679  4704.375
678.8  4725.3125
678.6  4687.5
678.4  4734.375
678.2  4741.875
678  4640.3125
677.8  4709.6875
677.6  4757.8125
677.4  4714.0625
677.2  4634.375
677  4593.125
676.8  4621.5625
676.6  4617.1875
676.4  4613.4375
676.2  4571.875
676  4568.4375
675.8  4626.25
675.6  4575.9375
675.4  4552.8125
675.2  4547.8125
675  4615.3125
674.8  4568.75
674.6  4597.8125
674.4  4555.3125
674.2  4593.75
674  4552.8125
673.8  4556.25
673.6  4601.5625
673.4  4631.25
673.2  4623.125
673  4636.875
672.8  4670
672.6  4613.4375
672.4  4714.375
672.2  4634.6875
672  4728.75
671.8  4830.625
671.6  4782.5
671.4  4849.375
671.2  4942.5
671  4974.375
670.8  5002.5
670.6  5157.8125
670.4  5153.75
670.2  5246.875
670  5637.8125
669.8  5468.4375
669.6  5646.5625
669.4  5816.875
669.2  5943.75
669  6165
668.8  6316.5625
668.6  6598.4375
668.4  6715.3125
668.2  7053.4375
668  7247.8125
667.8  7600.3125
667.6  7729.0625
667.4  7896.875
667.2  8125
667  8210.625
666.8  8228.4375
666.6  8322.8125
666.4  8237.8125
666.2  8103.4375
666  7898.75
665.8  7719.0625
665.6  7477.1875
665.4  7349.0625
665.2  7039.6875
665  6740.625
664.8  6547.8125
664.6  6251.25
664.4  6045.3125
664.2  5819.6875
664  5634.0625
663.8  5458.75
663.6  5286.875
663.4  5173.75
663.2  5070.625
663  4889.0625
662.8  4810.625
662.6  4721.875
662.4  4755.3125
662.2  4660
662  4647.5
661.8  4528.75
661.6  4528.75
661.4  4484.375
661.2  4476.25
661  4380
660.8  4443.4375
660.6  4358.75
660.4  4328.75
660.2  4325.9375
660  4297.8125
659.8  4318.4375
659.6  4229.375
659.4  4273.125
659.2  4225.9375
659  4257.8125
658.8  4309.0625
658.6  4306.25
658.4  4316.25
658.2  4334.0625
658  4328.75
657.8  4369.375
657.6  4300.9375
657.4  4314.6875
657.2  4281.875
657  4361.25
656.8  4325.625
656.6  4315.9375
656.4  4386.5625
656.2  4337.1875
656  4264.0625
655.8  4278.4375
655.6  4300.3125
655.4  4305
655.2  4291.875
655  4219.6875
654.8  4212.1875
654.6  4160.625
654.4  4125.9375
654.2  4142.1875
654  4125.3125
653.8  4121.25
653.6  4079.6875
653.4  4009.6875
653.2  4051.875
653  4073.125
652.8  4024.6875
652.6  3991.5625
652.4  4028.125
652.2  3953.125
652  3935.9375
651.8  3898.125
651.6  3899.6875
651.4  3895.3125
651.2  3925.625
651  3881.25
650.8  3975
650.6  3942.8125
650.4  3912.8125
650.2  3833.75
650  3906.5625
649.8  3880.9375
649.6  3898.75
649.4  3828.4375
649.2  3851.875
649  3846.875
648.8  3875.625
648.6  3811.5625
648.4  3837.5
648.2  3887.5
648  3831.25
647.8  3837.1875
647.6  3845
647.4  3825.3125
647.2  3876.25
647  3836.875
646.8  3844.0625
646.6  3872.1875
646.4  3814.375
646.2  3818.4375
646  3872.5
645.8  3861.875
645.6  3781.25
645.4  3814.375
645.2  3896.875
645  3854.375
644.8  3805.625
644.6  3803.125
644.4  3809.0625
644.2  3823.4375
644  3807.1875
643.8  3804.375
643.6  3812.8125
643.4  3811.5625
643.2  3726.5625
643  3761.5625
642.8  3860.3125
642.6  3779.0625
642.4  3735.625
642.2  3795.9375
642  3825.3125
641.8  3792.5
641.6  3835.3125
641.4  3836.875
641.2  3790
641  3823.75
640.8  3782.1875
640.6  3800.625
640.4  3822.5
640.2  3780.3125
640  3763.125
639.8  3727.8125
639.6  3790.625
639.4  3822.8125
639.2  3800.3125
639  3784.6875
638.8  3765.9375
638.6  3755
638.4  3770.3125
638.2  3756.5625
638  3793.4375
637.8  3835.625
637.6  3821.5625
637.4  3804.375
637.2  3827.8125
637  3775.9375
636.8  3763.75
636.6  3780.3125
636.4  3772.1875
636.2  3866.875
636  3812.8125
635.8  3786.5625
635.6  3757.8125
635.4  3841.25
635.2  3860
635  3827.5
634.8  3748.75
634.6  3789.375
634.4  3774.0625
634.2  3768.4375
634  3818.75
633.8  3770.9375
633.6  3772.1875
633.4  3813.75
633.2  3730.625
633  3840.9375
632.8  3801.5625
632.6  3775
632.4  3740.9375
632.2  3742.5
632  3742.5
631.8  3745
631.6  3761.875
631.4  3778.4375
631.2  3809.0625
631  3785.9375
630.8  3805.9375
630.6  3832.1875
630.4  3754.375
630.2  3823.125
630  3753.75
629.8  3774.375
629.6  3749.0625
629.4  3750.625
629.2  3804.6875
629  3723.75
628.8  3737.8125
628.6  3752.8125
628.4  3781.5625
628.2  3754.0625
628  3785.3125
627.8  3772.1875
627.6  3794.375
627.4  3754.6875
627.2  3813.125
627  3707.1875
626.8  3781.25
626.6  3711.5625
626.4  3709.6875
626.2  3768.4375
626  3736.25
625.8  3787.1875
625.6  3708.125
625.4  3759.0625
625.2  3697.1875
625  3733.125
624.8  3731.875
624.6  3695.3125
624.4  3752.1875
624.2  3756.5625
624  3830.3125
623.8  3748.125
623.6  3702.8125
623.4  3803.75
623.2  3766.25
623  3715.3125
622.8  3699.6875
622.6  3785.3125
622.4  3668.125
622.2  3794.375
622  3718.125
621.8  3768.125
621.6  3740.3125
621.4  3705.3125
621.2  3738.125
621  3791.875
620.8  3716.25
620.6  3747.5
620.4  3755.625
620.2  3747.1875
620  3771.25
619.8  3773.75
619.6  3753.125
619.4  3790.3125
619.2  3723.4375
619  3785.9375
618.8  3708.4375
618.6  3784.0625
618.4  3744.375
618.2  3734.0625
618  3786.875
617.8  3743.75
617.6  3755.3125
617.4  3748.75
617.2  3752.5
617  3760.625
616.8  3741.5625
616.6  3784.0625
616.4  3757.5
616.2  3830.625
616  3742.8125
615.8  3761.5625
615.6  3786.25
615.4  3804.6875
615.2  3734.0625
615  3779.6875
614.8  3724.6875
614.6  3768.125
614.4  3726.875
614.2  3780
614  3714.0625
613.8  3809.0625
613.6  3691.875
613.4  3779.375
613.2  3751.25
613  3714.0625
612.8  3789.0625
612.6  3760.3125
612.4  3756.25
612.2  3688.125
612  3761.5625
611.8  3763.75
611.6  3791.25
611.4  3745.3125
611.2  3719.375
611  3785.3125
610.8  3828.75
610.6  3680
610.4  3752.1875
610.2  3804.0625
610  3719.6875
609.8  3724.6875
609.6  3766.5625
609.4  3742.5
609.2  3811.875
609  3780.625
608.8  3762.1875
608.6  3728.125
608.4  3822.5
608.2  3755
608  3770.625
607.8  3681.875
607.6  3723.125
607.4  3827.5
607.2  3724.375
607  3742.5
606.8  3718.75
606.6  3784.6875
606.4  3721.875
606.2  3725.9375
606  3727.8125
605.8  3764.0625
605.6  3775.3125
605.4  3788.4375
605.2  3748.4375
605  3763.75
604.8  3815.625
604.6  3739.0625
604.4  3737.1875
604.2  3765.9375
604  3775
603.8  3762.1875
603.6  3706.5625
603.4  3793.125
603.2  3769.0625
603  3776.875
602.8  3782.8125
602.6  3736.25
602.4  3803.4375
602.2  3741.25
602  3778.4375
601.8  3737.1875
601.6  3826.5625
601.4  3768.4375
601.2  3750.3125
601  3757.5
600.8  3745.625
600.6  3809.375
600.4  3763.125
600.2  3784.0625
600  3845.625
599.8  3817.5
599.6  3792.8125
599.4  3737.8125
599.2  3826.5625
599  3787.5
598.8  3839.0625
598.6  3826.25
598.4  3803.125
598.2  3777.1875
598  3831.25
597.8  3819.375
597.6  3825.3125
597.4  3823.75
597.2  3768.4375
597  3796.875
596.8  3828.125
596.6  3822.5
596.4  3781.5625
596.2  3809.6875
596  3792.1875
595.8  3868.75
595.6  3848.125
595.4  3779.0625
595.2  3806.25
595  3856.25
594.8  3806.25
594.6  3799.0625
594.4  3777.5
594.2  3810.625
594  3789.375
593.8  3823.4375
593.6  3753.125
593.4  3742.1875
593.2  3758.125
593  3808.125
592.8  3779.375
592.6  3752.1875
592.4  3743.4375
592.2  3773.75
592  3768.4375
591.8  3727.1875
591.6  3776.5625
591.4  3730.3125
591.2  3800
591  3696.5625
590.8  3696.5625
590.6  3756.5625
590.4  3706.25
590.2  3794.375
590  3774.0625
589.8  3789.375
589.6  3725
589.4  3753.75
589.2  3719.375
589  3762.1875
588.8  3762.1875
588.6  3757.8125
588.4  3807.1875
588.2  3790.9375
588  3812.5
587.8  3733.75
587.6  3777.5
587.4  3731.5625
587.2  3740.625
587  3779.0625
586.8  3789.375
586.6  3816.5625
586.4  3790.625
586.2  3785.625
586  3772.5
585.8  3745.9375
585.6  3768.4375
585.4  3733.125
585.2  3744.375
585  3775.625
584.8  3782.8125
584.6  3794.0625
584.4  3729.0625
584.2  3734.375
584  3729.0625
583.8  3794.6875
583.6  3763.4375
583.4  3778.4375
583.2  3780.3125
583  3768.4375
582.8  3720.3125
582.6  3774.0625
582.4  3767.1875
582.2  3765
582  3798.4375
581.8  3787.5
581.6  3723.125
581.4  3759.375
581.2  3781.25
581  3713.4375
580.8  3805.9375
580.6  3788.75
580.4  3760.625
580.2  3759.375
580  3787.1875
579.8  3771.875
579.6  3771.5625
579.4  3843.125
579.2  3705
579  3814.0625
578.8  3729.6875
578.6  3745.9375
578.4  3810.3125
578.2  3786.875
578  3708.4375
577.8  3758.125
577.6  3775.9375
577.4  3733.4375
577.2  3771.25
577  3842.1875
576.8  3705.625
576.6  3745.9375
576.4  3763.125
576.2  3733.125
576  3726.5625
575.8  3729.6875
575.6  3817.5
575.4  3820.3125
575.2  3703.125
575  3758.4375
574.8  3770
574.6  3734.6875
574.4  3783.75
574.2  3815
574  3783.4375
573.8  3811.5625
573.6  3804.375
573.4  3815.9375
573.2  3735
573  3757.1875
572.8  3796.5625
572.6  3773.75
572.4  3800.9375
572.2  3807.1875
572  3761.5625
571.8  3786.25
571.6  3812.8125
571.4  3841.25
571.2  3830.625
571  3758.125
570.8  3769.375
570.6  3720.9375
570.4  3784.6875
570.2  3805.625
570  3775
569.8  3820.625
569.6  3756.5625
569.4  3825.625
569.2  3875.9375
569  3848.125
568.8  3834.375
568.6  3830
568.4  3870
568.2  3804.375
568  3824.375
567.8  3794.0625
567.6  3800.9375
567.4  3840.625
567.2  3784.0625
567  3825.9375
566.8  3800.9375
566.6  3816.25
566.4  3811.875
566.2  3823.125
566  3793.125
565.8  3798.4375
565.6  3795.3125
565.4  3790.625
565.2  3759.6875
565  3835
564.8  3853.125
564.6  3846.25
564.4  3795.625
564.2  3820.625
564  3819.375
563.8  3741.5625
563.6  3755.3125
563.4  3790.3125
563.2  3752.5
563  3767.8125
562.8  3775.3125
562.6  3816.5625
562.4  3785.625
562.2  3818.75
562  3788.75
561.8  3815.625
561.6  3852.8125
561.4  3802.5
561.2  3815
561  3847.8125
560.8  3820.625
560.6  3772.5
560.4  3747.8125
560.2  3790.9375
560  3805.9375
559.8  3852.1875
559.6  3802.1875
559.4  3813.75
559.2  3829.375
559  3861.25
558.8  3810.9375
558.6  3850.3125
558.4  3821.875
558.2  3817.5
558  3828.125
557.8  3832.1875
557.6  3844.0625
557.4  3871.5625
557.2  3880.625
557  3820
556.8  3794.0625
556.6  3825.3125
556.4  3806.5625
556.2  3775.3125
556  3837.5
555.8  3796.25
555.6  3803.4375
555.4  3869.6875
555.2  3800.3125
555  3851.25
554.8  3885
554.6  3875
554.4  3878.4375
554.2  3824.6875
554  3860.625
553.8  3895.9375
553.6  3897.1875
553.4  3896.5625
553.2  3810.9375
553  3872.8125
552.8  3952.5
552.6  3938.4375
552.4  3915.9375
552.2  3897.8125
552  3898.4375
551.8  3960.625
551.6  3929.0625
551.4  3870.625
551.2  3933.75
551  3912.5
550.8  3929.0625
550.6  3966.25
550.4  3980
550.2  3883.4375
550  3940
549.8  3928.125
549.6  3926.25
549.4  3895.3125
549.2  3900.625
549  3938.125
548.8  3920
548.6  3866.25
548.4  3932.5
548.2  3958.125
548  3927.8125
547.8  3939.0625
547.6  3900.625
547.4  3939.6875
547.2  3953.75
547  3934.375
546.8  3915.9375
546.6  3902.5
546.4  3859.6875
546.2  3920
546  3884.375
545.8  3898.125
545.6  3880.9375
545.4  3789.0625
545.2  3799.0625
545  3727.5
544.8  3816.5625
544.6  3760
544.4  3785.3125
544.2  3769.375
544  3749.375
543.8  3753.4375
543.6  3669.0625
543.4  3706.25
543.2  3734.6875
543  3665.625
542.8  3652.8125
542.6  3649.6875
542.4  3632.8125
542.2  3636.25
542  3684.6875
541.8  3670.3125
541.6  3663.125
541.4  3622.1875
541.2  3631.25
541  3685.625
540.8  3600.3125
540.6  3632.8125
540.4  3675.3125
540.2  3616.875
540  3640.3125
539.8  3649.0625
539.6  3607.5
539.4  3561.875
539.2  3668.4375
539  3600
538.8  3610.9375
538.6  3669.6875
538.4  3588.75
538.2  3647.1875
538  3615.3125
537.8  3562.5
537.6  3573.4375
537.4  3606.25
537.2  3584.0625
537  3635
536.8  3680.3125
536.6  3685.3125
536.4  3639.6875
536.2  3616.875
536  3719.375
535.8  3711.875
535.6  3782.5
535.4  3734.0625
535.2  3751.5625
535  3794.0625
534.8  3825
534.6  3830.625
534.4  3874.0625
534.2  3958.75
534  3985.625
533.8  4106.875
533.6  4229.6875
533.4  4248.75
533.2  4341.875
533  4491.875
532.8  4675.3125
532.6  4880.9375
532.4  5113.125
532.2  5307.8125
532  5625.9375
531.8  6013.125
531.6  6309.6875
531.4  6667.1875
531.2  6955.3125
531  7038.75
530.8  6978.75
530.6  6839.6875
530.4  6608.4375
530.2  6129.375
530  5614.0625
529.8  5168.75
529.6  4647.1875
529.4  4335.625
529.2  4043.125
529  3829.0625
528.8  3748.4375
528.6  3667.5
528.4  3574.6875
528.2  3509.6875
528  3528.75
527.8  3503.4375
527.6  3522.5
527.4  3518.4375
527.2  3475.9375
527  3496.5625
526.8  3489.375
526.6  3533.125
526.4  3457.1875
526.2  3451.25
526  3431.875
525.8  3453.4375
525.6  3435
525.4  3395.625
525.2  3434.6875
525  3449.375
524.8  3438.125
524.6  3478.75
524.4  3461.25
524.2  3446.875
524  3450.3125
523.8  3453.75
523.6  3514.6875
523.4  3447.1875
523.2  3505.9375
523  3510.9375
522.8  3515.3125
522.6  3490.3125
522.4  3482.1875
522.2  3564.0625
522  3585.3125
521.8  3610.3125
521.6  3663.4375
521.4  3692.1875
521.2  3677.5
521  3707.5
520.8  3683.75
520.6  3679.375
520.4  3610.625
520.2  3658.4375
520  3531.5625
519.8  3637.5
519.6  3510
519.4  3548.4375
519.2  3519.0625
519  3559.375
518.8  3496.875
518.6  3529.0625
518.4  3520.9375
518.2  3478.125
518  3459.375
517.8  3423.4375
517.6  3445.3125
517.4  3444.0625
517.2  3412.5
517  3375.3125
516.8  3415.625
516.6  3403.4375
516.4  3418.75
516.2  3382.5
516  3380.625
515.8  3417.8125
515.6  3461.875
515.4  3405.625
515.2  3379.6875
515  3468.4375
514.8  3405.3125
514.6  3453.4375
514.4  3387.5
514.2  3408.125
514  3412.8125
513.8  3418.125
513.6  3490.3125
513.4  3398.125
513.2  3441.875
513  3391.25
512.8  3458.4375
512.6  3443.4375
512.4  3426.25
512.2  3377.1875
512  3371.875
511.8  3433.4375
511.6  3415.3125
511.4  3405.625
511.2  3390.9375
511  3384.375
510.8  3434.375
510.6  3415.9375
510.4  3363.75
510.2  3486.25
510  3794.0625
509.8  3405.625
509.6  3448.75
509.4  3382.1875
509.2  3440.625
509  3370.9375
508.8  3471.875
508.6  3374.6875
508.4  3387.1875
508.2  3388.4375
508  3411.875
507.8  3379.375
507.6  3411.25
507.4  3370
507.2  3469.0625
507  3360
506.8  3424.6875
506.6  3405
506.4  3406.5625
506.2  3437.1875
506  3446.5625
505.8  3423.125
505.6  3378.4375
505.4  3461.5625
505.2  3477.8125
505  3349.0625
504.8  3479.0625
504.6  3397.8125
504.4  3427.8125
504.2  3391.25
504  3473.125
503.8  3447.8125
503.6  3359.6875
503.4  3369.0625
503.2  3370
503  3422.1875
502.8  3495.3125
502.6  3424.0625
502.4  3374.0625
502.2  3372.5
502  3434.0625
501.8  3392.8125
501.6  3337.5
501.4  3364.0625
501.2  3390
501  3391.5625
500.8  3443.4375
500.6  3398.4375
500.4  3410.625
500.2  3365.3125
500  3418.4375
499.8  3335.3125
499.6  3395
499.4  3420.9375
499.2  3366.875
499  3406.25
498.8  3473.125
498.6  3458.75
498.4  3455.625
498.2  3490.625
498  3527.1875
497.8  3587.1875
497.6  3529.375
497.4  3697.1875
497.2  3695.9375
497  3708.75
496.8  3740.9375
496.6  3905
496.4  3979.6875
496.2  3989.375
496  3998.75
495.8  4043.4375
495.6  4078.4375
495.4  4037.5
495.2  4012.8125
495  3892.1875
494.8  3832.8125
494.6  3712.1875
494.4  3637.8125
494.2  3548.75
494  3454.375
493.8  3419.375
493.6  3413.125
493.4  3374.6875
493.2  3352.1875
493  3364.0625
492.8  3284.375
492.6  3268.125
492.4  3305.3125
492.2  3348.4375
492  3301.875
491.8  3350.3125
491.6  3320
491.4  3345.625
491.2  3297.5
491  3385.9375
490.8  3386.25
490.6  3369.0625
490.4  3377.1875
490.2  3431.875
490  3359.375
489.8  3467.5
489.6  3473.125
489.4  3581.5625
489.2  3659.6875
489  3664.375
488.8  3803.125
488.6  3839.6875
488.4  3927.1875
488.2  4028.75
488  4151.25
487.8  4242.1875
487.6  4288.4375
487.4  4278.4375
487.2  4415.9375
487  4366.875
486.8  4338.125
486.6  4214.6875
486.4  3985.625
486.2  3934.375
486  3791.875
485.8  3633.4375
485.6  3622.1875
485.4  3538.125
485.2  3439.6875
485  3378.75
484.8  3394.375
484.6  3388.4375
484.4  3328.75
484.2  3332.1875
484  3329.375
483.8  3345.3125
483.6  3329.6875
483.4  3338.4375
483.2  3276.875
483  3375.3125
482.8  3313.4375
482.6  3303.4375
482.4  3309.0625
482.2  3339.375
482  3315.3125
481.8  3356.875
481.6  3330.3125
481.4  3327.5
481.2  3286.875
481  3367.1875
480.8  3312.1875
480.6  3314.6875
480.4  3367.8125
480.2  3283.4375
480  3367.1875
479.8  3291.25
479.6  3334.0625
479.4  3320.3125
479.2  3359.0625
479  3389.0625
478.8  3367.1875
478.6  3374.375
478.4  3358.125
478.2  3377.8125
478  3387.5
477.8  3436.25
477.6  3388.75
477.4  3394.375
477.2  3406.25
477  3375.625
476.8  3390
476.6  3382.8125
476.4  3495.625
476.2  3373.125
476  3421.875
475.8  3424.6875
475.6  3390.625
475.4  3466.875
475.2  3364.375
475  3430.3125
474.8  3444.0625
474.6  3468.125
474.4  3467.1875
474.2  3466.5625
474  3490.3125
473.8  3460.3125
473.6  3440.9375
473.4  3497.8125
473.2  3481.5625
473  3524.0625
472.8  3570.625
472.6  3512.1875
472.4  3479.375
472.2  3487.1875
472  3522.1875
471.8  3502.8125
471.6  3475.3125
471.4  3581.875
471.2  3562.8125
471  3530.9375
470.8  3525.9375
470.6  3590.625
470.4  3469.0625
470.2  3516.25
470  3516.25
469.8  3560.3125
469.6  3528.125
469.4  3548.4375
469.2  3550.9375
469  3577.5
468.8  3558.125
468.6  3511.5625
468.4  3513.75
468.2  3502.8125
468  3465.3125
467.8  3586.5625
467.6  3485
467.4  3498.125
467.2  3516.5625
467  3484.375
466.8  3532.5
466.6  3476.5625
466.4  3498.75
466.2  3500
466  3470.3125
465.8  3556.5625
465.6  3503.125
465.4  3559.6875
465.2  3548.4375
465  3518.75
464.8  3521.25
464.6  3559.375
464.4  3514.375
464.2  3542.5
464  3512.1875
463.8  3547.5
463.6  3520
463.4  3490
463.2  3399.375
463  3483.4375
462.8  3506.25
462.6  3389.6875
462.4  3399.0625
462.2  3373.125
462  3390
461.8  3344.375
461.6  3308.75
461.4  3257.1875
461.2  3317.8125
461  3272.5
460.8  3227.8125
460.6  3278.75
460.4  3220.3125
460.2  3197.5
460  3148.75
459.8  3165.9375
459.6  3085
459.4  3075.9375
459.2  3086.5625
459  3079.375
458.8  3084.0625
458.6  2992.5
458.4  3010.9375
458.2  3004.375
458  3036.5625
457.8  3092.8125
457.6  3023.4375
457.4  3060.625
457.2  3054.375
457  3051.25
456.8  3127.8125
456.6  3160.625
456.4  3218.75
456.2  3291.5625
456  3453.75
455.8  3534.375
455.6  3720.3125
455.4  3940.3125
455.2  4214.6875
455  4624.0625
454.8  5146.875
454.6  5749.375
454.4  6380.9375
454.2  7096.25
454  8160.625
453.8  9075
453.6  9949.0625
453.4  10760
453.2  11436.875
453  12054.063
452.8  12141.875
452.6  11696.25
452.4  11044.688
452.2  9937.8125
452  8628.75
451.8  7177.1875
451.6  5805.3125
451.4  4870
451.2  4075
451  3508.75
450.8  3143.75
450.6  2808.4375
450.4  2670
450.2  2603.75
450  2564.375
449.8  2563.125
449.6  2526.875
449.4  2547.1875
449.2  2535.3125
449  2650.3125
448.8  2756.5625
448.6  2844.375
448.4  2960.625
448.2  3283.75
448  3576.875
447.8  4015.3125
447.6  4382.8125
447.4  5031.25
447.2  5813.125
447  6732.5
446.8  7858.4375
446.6  9113.75
446.4  10434.688
446.2  11740
446  13077.188
445.8  14334.688
445.6  15365.313
445.4  15845.313
445.2  15834.063
445  15355.938
444.8  14041.563
444.6  12500.625
444.4  10594.063
444.2  8685
444  6932.5
443.8  5606.5625
443.6  4580.9375
443.4  3925
443.2  3492.8125
443  3272.8125
442.8  2999.0625
442.6  2730.625
442.4  2632.5
442.2  2394.6875
442  2377.8125
441.8  2231.5625
441.6  2196.875
441.4  2139.6875
441.2  2028.4375
441  1990
440.8  1976.25
440.6  1887.5
440.4  1834.375
440.2  1765
440  1730.9375
439.8  1661.25
439.6  1637.5
439.4  1601.5625
439.2  1541.25
439  1538.75
438.8  1510.3125
438.6  1513.125
438.4  1485
438.2  1455.9375
438  1560.625
437.8  1568.4375
437.6  1520.625
437.4  1597.8125
437.2  1640.9375
437  1731.875
436.8  1782.8125
436.6  1904.375
436.4  1979.0625
436.2  2170
436  2200.9375
435.8  2245
435.6  2316.875
435.4  2363.75
435.2  2276.5625
435  2242.8125
434.8  2186.25
434.6  2354.6875
434.4  2038.125
434.2  1909.0625
434  1918.125
433.8  1888.4375
433.6  1820.625
433.4  1767.8125
433.2  1787.1875
433  1717.5
432.8  1631.5625
432.6  1551.5625
432.4  1468.4375
432.2  1446.5625
432  1349.0625
431.8  1329.6875
431.6  1295.9375
431.4  1219.375
431.2  1256.25
431  1195.9375
430.8  1247.5
430.6  1244.6875
430.4  1220.625
430.2  1210.9375
430  1215.3125
429.8  1197.1875
429.6  1174.0625
429.4  1165.3125
429.2  1169.6875
429  1139.6875
428.8  1175.3125
428.6  1152.1875
428.4  1162.1875
428.2  1173.4375
428  1257.5
427.8  1173.125
427.6  1159.375
427.4  1151.5625
427.2  1129.375
427  1164.375
426.8  1179.375
426.6  1152.5
426.4  1179.375
426.2  1153.4375
426  1149.375
425.8  1183.4375
425.6  1198.4375
425.4  1166.25
425.2  1175.3125
425  1159.0625
424.8  1160.625
424.6  1148.75
424.4  1212.1875
424.2  1197.5
424  1171.25
423.8  1121.875
423.6  1151.875
423.4  1121.875
423.2  1154.6875
423  1151.875
422.8  1099.6875
422.6  1128.125
422.4  1155
422.2  1134.6875
422  1149.0625
421.8  1171.5625
421.6  1139.0625
421.4  1149.0625
421.2  1150.625
421  1146.25
420.8  1130.9375
420.6  1104.0625
420.4  1114.6875
420.2  1153.4375
420  1075.3125
419.8  1102.1875
419.6  1095
419.4  1117.5
419.2  1109.6875
419  1114.0625
418.8  1143.125
418.6  1116.875
418.4  1103.4375
418.2  1110.625
418  1110
417.8  1105.3125
417.6  1112.8125
417.4  1104.375
417.2  1085
417  1102.8125
416.8  1111.5625
416.6  1085
416.4  1120.3125
416.2  1094.0625
416  1096.25
415.8  1068.4375
415.6  1131.25
415.4  1109.6875
415.2  1111.5625
415  1120
414.8  1090.3125
414.6  1100
414.4  1116.5625
414.2  1107.5
414  1110.3125
413.8  1090
413.6  1073.75
413.4  1096.5625
413.2  1093.4375
413  1073.4375
412.8  1077.1875
412.6  1067.1875
412.4  1088.4375
412.2  1068.125
412  1076.5625
411.8  1078.125
411.6  1086.875
411.4  1083.75
411.2  1073.4375
411  1063.4375
410.8  1056.25
410.6  1103.75
410.4  1074.0625
410.2  1094.375
410  1047.1875
409.8  1091.25
409.6  1046.875
409.4  1102.1875
409.2  1057.5
409  1103.125
408.8  1140
408.6  1071.5625
408.4  1053.75
408.2  1083.75
408  1060
407.8  1131.5625
407.6  1091.875
407.4  1072.5
407.2  1072.8125
407  1054.0625
406.8  1078.4375
406.6  1082.8125
406.4  1092.8125
406.2  1086.875
406  1079.0625
405.8  1062.5
405.6  1053.4375
405.4  1086.25
405.2  1070.3125
405  1068.125
404.8  1095.625
404.6  1080.3125
404.4  1084.375
404.2  1033.75
404  1088.125
403.8  1045.3125
403.6  1065
403.4  1091.5625
403.2  1078.125
403  1083.75
402.8  1097.1875
402.6  1084.375
402.4  1074.375
402.2  1081.25
402  1104.0625
401.8  1111.875
401.6  1109.375
401.4  1080.9375
401.2  1076.5625
401  1102.8125
400.8  1098.75
400.6  1126.875
400.4  1096.5625
400.2  1104.6875
400  1113.75
399.8  1084.6875
399.6  1117.8125
399.4  1102.5
399.2  1070.9375
399  1094.375
398.8  1074.6875
398.6  1079.0625
398.4  1096.5625
398.2  1084.0625
398  1082.1875
397.8  1092.5
397.6  1066.875
397.4  1078.75
397.2  1081.25
397  1063.75
396.8  1068.75
396.6  1067.5
396.4  1038.125
396.2  1075
396  1075.3125
395.8  1094.6875
395.6  1065.9375
395.4  1048.125
395.2  1080.9375
395  1061.25
394.8  1044.0625
394.6  1051.875
394.4  1041.875
394.2  1084.375
394  1055.625
393.8  1072.5
393.6  1062.5
393.4  1091.875
393.2  1075
393  1081.25
392.8  1049.6875
392.6  1059.6875
392.4  1076.875
392.2  1045.9375
392  1067.1875
391.8  1064.0625
391.6  1057.5
391.4  1076.25
391.2  1058.75
391  1032.8125
390.8  1083.4375
390.6  1071.5625
390.4  1063.125
390.2  1058.4375
390  1063.125
389.8  1053.125
389.6  1025.9375
389.4  1056.875
389.2  1074.375
389  1093.125
388.8  1037.1875
388.6  1052.1875
388.4  1062.1875
388.2  1067.5
388  1072.5
387.8  1064.375
387.6  1070
387.4  1066.5625
387.2  1055.9375
387  1058.75
386.8  1086.25
386.6  1046.5625
386.4  1106.5625
386.2  1082.1875
386  1120
385.8  1076.5625
385.6  1083.75
385.4  1111.25
385.2  1033.125
385  1111.875
384.8  1083.75
384.6  1090
384.4  1106.5625
384.2  1085
384  1097.8125
383.8  1106.875
383.6  1116.875
383.4  1096.875
383.2  1089.0625
383  1116.875
382.8  1133.125
382.6  1157.5
382.4  1114.0625
382.2  1137.1875
382  1129.0625
381.8  1147.5
381.6  1111.25
381.4  1115.625
381.2  1105.625
381  1127.8125
380.8  1102.8125
380.6  1088.4375
380.4  1094.6875
380.2  1094.0625
380  1097.1875
379.8  1062.5
379.6  1080.9375
379.4  1041.875
379.2  1062.8125
379  1071.25
378.8  1070
378.6  1109.6875
378.4  1080
378.2  1089.375
378  1069.375
377.8  1093.125
377.6  1105.3125
377.4  1084.375
377.2  1073.75
377  1080
376.8  1127.8125
376.6  1099.375
376.4  1126.875
376.2  1085
376  1103.4375
375.8  1112.1875
375.6  1127.5
375.4  1153.75
375.2  1131.875
375  1123.75
374.8  1121.875
374.6  1146.875
374.4  1145.3125
374.2  1121.875
374  1108.75
373.8  1102.5
373.6  1082.5
373.4  1076.25
373.2  1047.1875
373  1069.0625
372.8  1040
372.6  1026.875
372.4  996.25
372.2  1010.625
372  1003.4375
371.8  997.5
371.6  990.3125
371.4  1005
371.2  985
371  1006.875
370.8  1011.25
370.6  984.6875
370.4  960.9375
370.2  972.5
370  975.9375
369.8  983.4375
369.6  975.3125
369.4  963.4375
369.2  958.4375
369  944.0625
368.8  990.3125
368.6  970.625
368.4  1008.125
368.2  977.1875
368  939.375
367.8  970
367.6  968.125
367.4  947.1875
367.2  965.625
367  982.1875
366.8  948.125
366.6  956.25
366.4  944.6875
366.2  960.625
366  971.875
365.8  975.9375
365.6  976.5625
365.4  964.0625
365.2  981.25
365  966.875
364.8  974.6875
364.6  971.5625
364.4  986.875
364.2  975
364  981.25
363.8  973.4375
363.6  964.6875
363.4  992.8125
363.2  939.375
363  960.9375
362.8  949.0625
362.6  985.3125
362.4  951.25
362.2  1023.125
362  967.5
361.8  939.0625
361.6  976.25
361.4  964.375
361.2  982.8125
361  972.1875
360.8  1005.9375
360.6  990.625
360.4  971.875
360.2  940.625
360  968.75
359.8  966.5625
359.6  966.5625
359.4  974.0625
359.2  990.9375
359  957.8125
358.8  990.3125
358.6  983.125
358.4  963.4375
358.2  986.25
358  979.375
357.8  967.1875
357.6  1003.4375
357.4  981.5625
357.2  977.1875
357  976.25
356.8  991.5625
356.6  987.5
356.4  966.5625
356.2  1004.0625
356  977.5
355.8  954.0625
355.6  947.5
355.4  993.75
355.2  986.875
355  981.5625
354.8  970.9375
354.6  975.9375
354.4  997.8125
354.2  966.875
354  988.4375
353.8  988.75
353.6  989.375
353.4  962.5
353.2  985.3125
353  982.1875
352.8  957.5
352.6  957.1875
352.4  998.4375
352.2  970.625
352  988.4375
351.8  960
351.6  1004.375
351.4  954.6875
351.2  966.5625
351  989.375
350.8  962.8125
350.6  983.4375
350.4  935
350.2  939.0625
350  963.125
349.8  977.8125
349.6  967.8125
349.4  980
349.2  952.8125
349  958.75
348.8  989.375
348.6  975.3125
348.4  985.9375
348.2  955
348  924.375
347.8  971.875
347.6  963.125
347.4  976.5625
347.2  945.3125
347  988.125
346.8  998.125
346.6  977.5
346.4  948.125
346.2  962.5
346  955.625
345.8  947.8125
345.6  1015.625
345.4  1014.0625
345.2  947.5
345  960.3125
344.8  980.9375
344.6  985.625
344.4  994.0625
344.2  967.8125
344  912.1875
343.8  952.5
343.6  983.4375
343.4  946.875
343.2  997.8125
343  951.25
342.8  917.8125
342.6  962.8125
342.4  950.3125
342.2  987.8125
342  978.125
341.8  959.375
341.6  964.375
341.4  978.4375
341.2  981.25
341  973.75
340.8  975.3125
340.6  947.1875
340.4  962.8125
340.2  974.375
340  1001.25
339.8  942.5
339.6  978.75
339.4  964.0625
339.2  925.3125
339  950.625
338.8  999.0625
338.6  979.6875
338.4  992.5
338.2  979.0625
338  950
337.8  970.3125
337.6  977.5
337.4  972.5
337.2  963.125
337  963.75
336.8  946.875
336.6  951.5625
336.4  968.125
336.2  990.3125
336  973.75
335.8  972.5
335.6  988.125
335.4  951.5625
335.2  962.8125
335  985.9375
334.8  982.1875
334.6  955.3125
334.4  970.625
334.2  966.5625
334  961.5625
333.8  968.75
333.6  991.875
333.4  960.9375
333.2  989.375
333  945.625
332.8  992.1875
332.6  985
332.4  990.3125
332.2  916.5625
332  978.125
331.8  1000
331.6  989.6875
331.4  982.8125
331.2  995.3125
331  954.375
330.8  956.25
330.6  955
330.4  975.9375
330.2  970
330  996.875
329.8  991.875
329.6  967.5
329.4  1002.5
329.2  975.3125
329  958.4375
328.8  984.6875
328.6  923.75
328.4  926.875
328.2  970
328  967.5
327.8  965.625
327.6  972.1875
327.4  987.8125
327.2  960.9375
327  973.4375
326.8  942.1875
326.6  970
326.4  963.75
326.2  971.875
326  970
325.8  982.5
325.6  985.3125
325.4  984.0625
325.2  983.125
325  974.375
324.8  1008.75
324.6  952.5
324.4  1028.4375
324.2  990.3125
324  965.9375
323.8  968.125
323.6  972.1875
323.4  947.1875
323.2  970.625
323  957.5
322.8  1001.5625
322.6  964.375
322.4  985.625
322.2  955.9375
322  969.375
321.8  963.4375
321.6  957.1875
321.4  1000
321.2  998.125
321  995.3125
320.8  978.4375
320.6  1025.625
320.4  975.625
320.2  998.75
320  1010
319.8  971.25
319.6  1013.125
319.4  969.375
319.2  986.5625
319  958.75
318.8  980
318.6  990.9375
318.4  970.9375
318.2  996.5625
318  985.3125
317.8  984.6875
317.6  967.8125
317.4  1005
317.2  948.125
317  949.0625
316.8  988.75
316.6  979.6875
316.4  969.375
316.2  947.5
316  970
315.8  983.4375
315.6  965.625
315.4  980.3125
315.2  1009.0625
315  980
314.8  984.375
314.6  989.375
314.4  978.125
314.2  977.5
314  962.5
313.8  976.5625
313.6  972.1875
313.4  921.875
313.2  951.875
313  953.4375
312.8  999.0625
312.6  973.4375
312.4  999.375
312.2  950.9375
312  973.75
311.8  965.9375
311.6  975
311.4  980.625
311.2  956.875
311  959.6875
310.8  936.25
310.6  978.75
310.4  988.125
310.2  956.875
310  976.875
309.8  979.6875
309.6  974.375
309.4  933.75
309.2  987.8125
309  966.25
308.8  950.9375
308.6  988.75
308.4  957.5
308.2  955.625
308  959.375
307.8  957.5
307.6  981.5625
307.4  975.9375
307.2  975
307  955.625
306.8  933.75
306.6  955
306.4  1001.875
306.2  942.8125
306  944.0625
305.8  960.625
305.6  967.8125
305.4  954.0625
305.2  984.0625
305  950.3125
304.8  945.9375
304.6  938.4375
304.4  955.3125
304.2  963.75
304  983.4375
303.8  987.8125
303.6  961.25
303.4  998.75
303.2  962.5
303  995.625
302.8  969.6875
302.6  926.875
302.4  955.9375
302.2  975.9375
302  980
301.8  958.75
301.6  972.8125
301.4  975.9375
301.2  955.3125
301  978.125
300.8  941.5625
300.6  990.9375
300.4  979.0625
300.2  973.75
300  960
299.8  991.875
299.6  962.1875
299.4  970.3125
299.2  965.3125
299  920.3125
298.8  950.9375
298.6  970.9375
298.4  978.125
298.2  968.4375
298  969.6875
297.8  996.25
297.6  943.75
297.4  970.625
297.2  878.125
297  954.6875
296.8  991.875
296.6  953.75
296.4  985.3125
296.2  977.5
296  984.6875
295.8  953.4375
295.6  992.5
295.4  948.4375
295.2  999.0625
295  957.1875
294.8  962.1875
294.6  982.1875
294.4  977.5
294.2  990.9375
294  958.75
293.8  974.375
293.6  981.5625
293.4  972.5
293.2  983.75
293  978.75
292.8  986.875
292.6  969.6875
292.4  983.75
292.2  969.0625
292  966.5625
291.8  962.5
291.6  960.3125
291.4  1010.625
291.2  1004.6875
291  961.5625
290.8  971.5625
290.6  955.3125
290.4  951.875
290.2  988.75
290  979.6875
289.8  969.0625
289.6  989.0625
289.4  967.1875
289.2  992.5
289  1015
288.8  988.4375
288.6  1033.125
288.4  1078.75
288.2  1073.4375
288  1086.875
287.8  1083.4375
287.6  1112.8125
287.4  1123.4375
287.2  1167.5
287  1137.1875
286.8  1125.3125
286.6  1096.875
286.4  1114.6875
286.2  1115
286  1100
285.8  1074.375
285.6  1074.375
285.4  1049.6875
285.2  1064.375
285  1065.625
284.8  1005
284.6  1013.125
284.4  969.375
284.2  995
284  974.375
283.8  964.0625
283.6  925
283.4  947.5
283.2  948.4375
283  956.25
282.8  971.5625
282.6  948.75
282.4  960.9375
282.2  960.9375
282  941.875
281.8  955
281.6  969.0625
281.4  938.125
281.2  969.375
281  956.875
280.8  960.9375
280.6  973.125
280.4  918.125
280.2  964.0625
280  953.4375
279.8  948.4375
279.6  955.3125
279.4  920.625
279.2  957.8125
279  936.875
278.8  962.8125
278.6  934.0625
278.4  969.6875
278.2  984.6875
278  970.625
277.8  951.5625
277.6  937.1875
277.4  981.25
277.2  997.8125
277  963.125
276.8  955.3125
276.6  989.6875
276.4  977.5
276.2  1019.6875
276  981.25
275.8  963.75
275.6  963.75
275.4  965.3125
275.2  991.5625
275  994.375
274.8  973.75
274.6  961.875
274.4  950.625
274.2  960.9375
274  958.125
273.8  965.3125
273.6  980.625
273.4  992.8125
273.2  968.4375
273  942.5
272.8  926.875
272.6  960.3125
272.4  934.375
272.2  964.375
272  959.6875
271.8  957.8125
271.6  989.375
271.4  957.5
271.2  972.8125
271  971.875
270.8  982.5
270.6  983.125
270.4  956.875
270.2  959.6875
270  985.3125
269.8  980.625
269.6  939.6875
269.4  993.75
269.2  969.6875
269  956.875
268.8  943.75
268.6  980
268.4  962.5
268.2  969.6875
268  979.375
267.8  958.4375
267.6  959.0625
267.4  965.3125
267.2  955.3125
267  971.25
266.8  950.9375
266.6  933.4375
266.4  958.4375
266.2  980.3125
266  955
265.8  935
265.6  964.6875
265.4  976.875
265.2  955.3125
265  929.6875
264.8  975.3125
264.6  932.8125
264.4  960.3125
264.2  960.9375
264  939.0625
263.8  962.5
263.6  954.0625
263.4  949.6875
263.2  967.5
263  928.75
262.8  960
262.6  959.0625
262.4  925.9375
262.2  974.0625
262  956.875
261.8  944.375
261.6  964.375
261.4  944.0625
261.2  981.5625
261  960.9375
260.8  1007.5
260.6  991.25
260.4  958.125
260.2  967.8125
260  953.125
259.8  960
259.6  976.25
259.4  994.0625
259.2  935.9375
259  945.625
258.8  945.9375
258.6  934.375
258.4  965.3125
258.2  933.125
258  979.6875
257.8  963.4375
257.6  989.0625
257.4  967.8125
257.2  955
257  959.0625
256.8  960.9375
256.6  944.375
256.4  966.875
256.2  973.4375
256  945.3125
255.8  963.4375
255.6  962.5
255.4  981.25
255.2  970.9375
255  976.875
254.8  958.4375
254.6  945.3125
254.4  984.375
254.2  967.5
254  987.5
253.8  960.9375
253.6  949.6875
253.4  935.9375
253.2  959.375
253  973.125
252.8  965
252.6  959.375
252.4  963.75
252.2  954.0625
252  966.875
251.8  1113.4375
251.6  945
251.4  959.0625
251.2  932.8125
251  961.875
250.8  956.25
250.6  956.5625
250.4  960.625
250.2  983.4375
250  960
249.8  974.0625
249.6  986.875
249.4  982.1875
249.2  960.625
249  957.8125
248.8  973.4375
248.6  957.8125
248.4  960
248.2  990.9375
248  975
247.8  1002.1875
247.6  956.25
247.4  963.75
247.2  949.6875
247  980
246.8  956.875
246.6  978.75
246.4  972.8125
246.2  925.625
246  982.5
245.8  968.4375
245.6  986.25
245.4  958.125
245.2  989.375
245  1007.8125
244.8  989.375
244.6  1015.625
244.4  1013.4375
244.2  988.125
244  1026.5625
243.8  1007.8125
243.6  1029.6875
243.4  1001.5625
243.2  1039.0625
243  1059.6875
242.8  1014.6875
242.6  1019.6875
242.4  1003.75
242.2  998.125
242  1043.75
241.8  1019.375
241.6  1011.875
241.4  985.3125
241.2  999.0625
241  979.6875
240.8  976.5625
240.6  980
240.4  938.4375
240.2  980.3125
240  968.125
239.8  956.875
239.6  960.3125
239.4  963.4375
239.2  981.25
239  964.375
238.8  959.0625
238.6  952.1875
238.4  947.1875
238.2  965.3125
238  961.875
237.8  946.5625
237.6  976.5625
237.4  971.875
237.2  970.3125
237  954.0625
236.8  948.4375
236.6  975
236.4  924.0625
236.2  979.0625
236  950.625
235.8  959.6875
235.6  953.125
235.4  956.25
235.2  950
235  932.5
234.8  1015.9375
234.6  999.0625
234.4  960.3125
234.2  954.0625
234  971.25
233.8  975
233.6  989.0625
233.4  984.375
233.2  971.25
233  984.6875
232.8  987.1875
232.6  974.375
232.4  1003.125
232.2  982.8125
232  1009.6875
231.8  947.1875
231.6  967.8125
231.4  974.0625
231.2  1002.1875
231  966.5625
230.8  992.8125
230.6  981.5625
230.4  952.1875
230.2  965.625
230  990.3125
229.8  957.8125
229.6  981.25
229.4  974.0625
229.2  981.875
229  938.4375
228.8  979.0625
228.6  955
228.4  984.6875
228.2  933.125
228  963.75
227.8  968.125
227.6  962.5
227.4  954.6875
227.2  958.75
227  991.5625
226.8  971.5625
226.6  950.625
226.4  979.6875
226.2  964.0625
226  961.5625
225.8  938.75
225.6  936.5625
225.4  927.5
225.2  917.5
225  981.875
224.8  954.375
224.6  962.1875
224.4  947.1875
224.2  977.1875
224  940.9375
223.8  969.375
223.6  935
223.4  928.75
223.2  956.25
223  939.375
222.8  938.75
222.6  961.5625
222.4  955.9375
222.2  938.75
222  987.1875
221.8  935.3125
221.6  964.6875
221.4  918.125
221.2  931.25
221  937.1875
220.8  958.125
220.6  953.4375
220.4  930.9375
220.2  961.875
220  970.9375
219.8  969.6875
219.6  953.75
219.4  958.125
219.2  947.5
219  953.4375
218.8  962.1875
218.6  903.125
218.4  943.4375
218.2  925.625
218  915.9375
217.8  916.5625
217.6  944.6875
217.4  928.4375
217.2  930.3125
217  969.6875
216.8  942.8125
216.6  921.5625
216.4  960.9375
216.2  900.3125
216  970.625
215.8  938.75
215.6  953.4375
215.4  921.875
215.2  975.625
215  949.375
214.8  959.6875
214.6  953.125
214.4  943.4375
214.2  964.0625
214  915.9375
213.8  929.0625
213.6  936.875
213.4  934.6875
213.2  924.0625
213  947.1875
212.8  922.8125
212.6  897.1875
212.4  968.125
212.2  929.6875
212  938.125
211.8  925
211.6  935.625
211.4  943.125
211.2  939.375
211  928.4375
210.8  935.3125
210.6  927.8125
210.4  930.625
210.2  949.375
210  933.4375
209.8  940.9375
209.6  903.4375
209.4  930.625
209.2  959.375
209  958.4375
208.8  952.5
208.6  911.25
208.4  934.6875
208.2  963.4375
208  968.75
207.8  934.375
207.6  923.4375
207.4  954.6875
207.2  953.75
207  933.75
206.8  930.3125
206.6  986.25
206.4  929.6875
206.2  951.875
206  956.875
205.8  941.25
205.6  962.5
205.4  959.6875
205.2  946.875
205  952.5
204.8  957.5
204.6  935.9375
204.4  949.0625
204.2  938.75
204  941.25
203.8  950.625
203.6  923.125
203.4  962.1875
203.2  942.1875
203  966.25
202.8  974.0625
202.6  945
202.4  925
202.2  965.9375
202  967.8125
201.8  957.1875
201.6  964.375
201.4  946.875
201.2  971.5625
201  941.5625
200.8  934.6875
200.6  979.6875
200.4  989.375
200.2  980.625
200  957.5
199.8  985.625
199.6  996.875
199.4  982.1875
199.2  987.1875
199  961.875
198.8  947.8125
198.6  939.375
198.4  999.375
198.2  979.6875
198  955.9375
197.8  1055.3125
197.6  920.3125
197.4  943.75
197.2  924.0625
197  951.875
196.8  965
196.6  922.5
196.4  956.25
196.2  959.375
196  962.1875
195.8  937.5
195.6  910.9375
195.4  921.5625
195.2  938.75
195  945.9375
194.8  952.1875
194.6  940.625
194.4  964.6875
194.2  945
194  936.875
193.8  962.1875
193.6  968.4375
193.4  933.125
193.2  954.375
193  972.1875
192.8  928.4375
192.6  980
192.4  981.5625
192.2  958.4375
192  936.875
191.8  991.5625
191.6  917.8125
191.4  962.1875
191.2  950.3125
191  940.9375
190.8  956.875
190.6  946.875
190.4  969.0625
190.2  948.125
190  927.1875
189.8  944.0625
189.6  966.5625
189.4  926.875
189.2  954.6875
189  931.5625
188.8  921.5625
188.6  966.875
188.4  917.5
188.2  923.4375
188  955.3125
187.8  960.3125
187.6  972.1875
187.4  957.8125
187.2  925
187  941.25
186.8  963.75
186.6  957.5
186.4  979.0625
186.2  938.75
186  956.25
185.8  951.875
185.6  959.0625
185.4  957.1875
185.2  980.625
185  924.6875
184.8  963.125
184.6  967.5
184.4  949.375
184.2  927.1875
184  933.75
183.8  935.9375
183.6  943.75
183.4  939.0625
183.2  943.75
183  956.875
182.8  995.3125
182.6  983.4375
182.4  986.875
182.2  964.0625
182  941.25
181.8  978.75
181.6  933.125
181.4  952.8125
181.2  982.8125
181  918.75
180.8  962.8125
180.6  939.6875
180.4  944.6875
180.2  985.3125
180  947.5
179.8  947.1875
179.6  916.25
179.4  972.5
179.2  988.4375
179  957.8125
178.8  952.5
178.6  962.1875
178.4  973.4375
178.2  954.0625
178  945
177.8  980.625
177.6  964.6875
177.4  979.0625
177.2  942.8125
177  950.3125
176.8  960.9375
176.6  930.625
176.4  957.5
176.2  911.25
176  911.5625
175.8  957.1875
175.6  906.25
175.4  933.75
175.2  945.9375
175  944.6875
174.8  981.875
174.6  927.8125
174.4  928.75
174.2  965.9375
174  962.8125
173.8  946.5625
173.6  925.9375
173.4  941.875
173.2  967.1875
173  950
172.8  949.375
172.6  972.5
172.4  926.875
172.2  938.125
172  946.5625
171.8  963.4375
171.6  944.6875
171.4  977.8125
171.2  932.1875
171  928.75
170.8  950.3125
170.6  940.3125
170.4  958.4375
170.2  925.625
170  988.4375
169.8  948.4375
169.6  949.375
169.4  959.0625
169.2  981.875
169  954.6875
168.8  922.8125
168.6  942.8125
168.4  933.125
168.2  957.5
168  944.375
167.8  961.25
167.6  961.25
167.4  949.6875
167.2  944.0625
167  963.75
166.8  937.8125
166.6  963.4375
166.4  972.5
166.2  980.9375
166  931.5625
165.8  983.75
165.6  935
165.4  941.875
165.2  958.125
165  964.0625
164.8  980.3125
164.6  980.3125
164.4  942.1875
164.2  989.0625
164  974.0625
163.8  965
163.6  933.75
163.4  998.75
163.2  958.75
163  982.1875
162.8  980.3125
162.6  967.8125
162.4  963.125
162.2  971.875
162  953.125
161.8  942.1875
161.6  947.1875
161.4  939.6875
161.2  967.5
161  957.1875
160.8  956.5625
160.6  976.5625
160.4  978.4375
160.2  985.9375
160  963.75
159.8  970
159.6  986.875
159.4  967.8125
159.2  955.3125
159  986.25
158.8  997.5
158.6  976.5625
158.4  975
158.2  955.3125
158  985
157.8  971.5625
157.6  997.1875
157.4  992.8125
157.2  995
157  1002.8125
156.8  987.1875
156.6  996.25
156.4  997.5
156.2  984.375
156  974.6875
155.8  961.25
155.6  980.625
155.4  1018.75
155.2  979.6875
155  998.4375
154.8  954.375
154.6  995.3125
154.4  1002.5
154.2  1000.9375
154  985.9375
153.8  960
153.6  950.625
153.4  980.3125
153.2  962.5
153  1001.25
152.8  956.25
152.6  965
152.4  964.375
152.2  960.3125
152  1014.6875
151.8  953.4375
151.6  965.625
151.4  980.3125
151.2  966.25
151  968.125
150.8  970
150.6  942.5
150.4  976.25
150.2  971.875
150  994.6875
149.8  970.625
149.6  958.125
149.4  949.6875
149.2  954.0625
149  964.0625
148.8  1007.8125
148.6  955.9375
148.4  983.125
148.2  986.5625
148  966.875
147.8  962.8125
147.6  952.8125
147.4  971.5625
147.2  986.5625
147  982.5
146.8  954.375
146.6  965.625
146.4  974.0625
146.2  989.375
146  930.9375
145.8  963.125
145.6  963.75
145.4  947.5
145.2  996.5625
145  966.875
144.8  993.4375
144.6  980.625
144.4  967.1875
144.2  951.5625
144  948.75
143.8  978.4375
143.6  959.375
143.4  955.9375
143.2  952.5
143  965.625
142.8  939.6875
142.6  980.625
142.4  981.5625
142.2  964.6875
142  985
141.8  957.5
141.6  987.1875
141.4  977.5
141.2  987.8125
141  996.5625
140.8  962.1875
140.6  977.1875
140.4  955.9375
140.2  984.6875
140  960.9375
139.8  960.3125
139.6  971.5625
139.4  982.8125
139.2  967.5
139  976.875
138.8  962.8125
138.6  1012.5
138.4  1001.875
138.2  985.625
138  1019.0625
137.8  969.375
137.6  992.8125
137.4  991.25
137.2  971.25
137  1008.125
136.8  953.125
136.6  980.3125
136.4  956.875
136.2  961.5625
136  972.5
135.8  982.8125
135.6  929.6875
135.4  991.875
135.2  982.8125
135  976.25
134.8  984.0625
134.6  993.75
134.4  988.4375
134.2  960.9375
134  975.9375
133.8  972.1875
133.6  985.3125
133.4  994.0625
133.2  966.875
133  971.25
132.8  970.9375
132.6  1014.6875
132.4  993.4375
132.2  991.5625
132  957.1875
131.8  983.75
131.6  977.1875
131.4  980.3125
131.2  953.4375
131  978.125
130.8  1020.9375
130.6  1021.5625
130.4  954.6875
130.2  982.8125
130  970
129.8  995.9375
129.6  982.5
129.4  977.1875
129.2  996.25
129  990.625
128.8  1008.4375
128.6  1005.3125
128.4  1022.8125
128.2  1020
128  1035.9375
127.8  1025
127.6  1051.25
127.4  1009.375
127.2  1027.5
127  1055
126.8  1066.875
126.6  1099.6875
126.4  1080.625
126.2  1055
126  1088.75
125.8  1092.5
125.6  1090.3125
125.4  1098.75
125.2  1140.9375
125  1165
124.8  1123.125
124.6  1151.25
124.4  1177.5
124.2  1184.0625
124  1143.125
123.8  1162.1875
123.6  1133.4375
123.4  1127.5
123.2  1139.375
123  1098.75
122.8  1095.625
122.6  1075.625
122.4  1070.3125
122.2  1061.25
122  1065.9375
121.8  1053.125
121.6  1047.1875
121.4  1014.6875
121.2  984.6875
121  1005.3125
120.8  1031.875
120.6  1004.6875
120.4  1010
120.2  972.1875
120  975.625
119.8  946.5625
119.6  1010
119.4  955.3125
119.2  954.6875
119  968.125
118.8  940.625
118.6  958.125
118.4  946.25
118.2  940.625
118  960
117.8  963.4375
117.6  952.1875
117.4  957.8125
117.2  959.375
117  974.375
116.8  971.5625
116.6  955
116.4  930.9375
116.2  951.5625
116  948.4375
115.8  956.875
115.6  928.4375
115.4  970.9375
115.2  973.75
115  959.375
114.8  982.5
114.6  964.0625
114.4  954.0625
114.2  971.25
114  971.875
113.8  955
113.6  947.1875
113.4  943.75
113.2  955.625
113  963.125
112.8  976.875
112.6  939.375
112.4  960.9375
112.2  941.5625
112  946.5625
111.8  925
111.6  910
111.4  953.125
111.2  945.625
111  971.5625
110.8  942.5
110.6  968.4375
110.4  953.125
110.2  960
110  939.0625
109.8  951.25
109.6  978.125
109.4  922.1875
109.2  935
109  937.5
108.8  939.6875
108.6  926.875
108.4  956.25
108.2  989.6875
108  966.875
107.8  954.6875
107.6  943.125
107.4  952.8125
107.2  933.4375
107  962.8125
106.8  951.25
106.6  963.4375
106.4  972.8125
106.2  960.9375
106  991.5625
105.8  939.6875
105.6  946.875
105.4  960.3125
105.2  990
105  967.1875
104.8  981.5625
104.6  965.3125
104.4  965.9375
104.2  1019.0625
104  980.625
103.8  960.3125
103.6  1005.625
103.4  946.875
103.2  988.75
103  978.4375
102.8  1013.125
102.6  986.25
102.4  966.5625
102.2  944.0625
102  971.875
101.8  931.875
101.6  965.3125
101.4  968.125
101.2  992.5
101  971.5625
100.8  979.0625
100.6  1000.9375
100.4  995.9375
100.2  965
100  982.1875
99.8  956.875
99.6  1001.25
99.4  977.1875
99.2  1003.4375
99  980.9375
98.8  981.5625
98.6  968.125
98.4  995.3125
98.2  1020.625
98  970.9375
97.8  1001.5625
97.6  967.1875
97.4  1018.4375
97.2  985.625
97  988.75
96.8  1005.9375
96.6  991.25
96.4  1010.625
96.2  1000.3125
96  1008.4375
95.8  1027.8125
95.6  978.4375
95.4  1013.125
95.2  992.1875
95  1004.375
94.8  1015.3125
94.6  988.75
94.4  1005
94.2  1005.625
94  1005.9375
93.8  1045.625
93.6  1000
93.4  991.5625
93.2  1027.8125
93  1017.5
92.8  1020
92.6  1048.75
92.4  1014.375
92.2  1017.1875
92  1026.25
91.8  1055.9375
91.6  1030
91.4  1004.0625
91.2  1036.5625
91  1018.4375
90.8  1053.125
90.6  1014.375
90.4  1045.3125
90.2  1043.4375
90  1012.5
89.8  1065.3125
89.6  1051.25
89.4  1045
89.2  1053.125
89  1047.1875
88.8  1066.25
88.6  1057.1875
88.4  1077.8125
88.2  1081.5625
88  1080
87.8  1080.3125
87.6  1094.0625
87.4  1101.875
87.2  1058.125
87  1121.875
86.8  1125.625
86.6  1119.375
86.4  1080.3125
86.2  1116.25
86  1090.9375
85.8  1129.375
85.6  1070.3125
85.4  1080
85.2  1094.0625
85  1105.3125
84.8  1082.1875
84.6  1107.5
84.4  1123.75
84.2  1114.375
84  1106.875
83.8  1117.1875
83.6  1121.875
83.4  1112.1875
83.2  1121.5625
83  1078.4375
82.8  1147.8125
82.6  1115
82.4  1138.4375
82.2  1138.75
82  1152.1875
81.8  1181.875
81.6  1171.875
81.4  1147.1875
81.2  1141.875
81  1145.3125
80.8  1138.125
80.6  1165.625
80.4  1154.375
80.2  1149.375
80  1182.5
79.8  1131.25
79.6  1143.4375
79.4  1164.0625
79.2  1150
79  1141.5625
78.8  1107.5
78.6  1130.3125
78.4  1069.6875
78.2  1106.875
78  1150.625
77.8  1120.9375
77.6  1099.6875
77.4  1054.6875
77.2  1077.1875
77  1059.6875
76.8  1033.75
76.6  1026.875
76.4  1044.6875
76.2  1035.3125
76  1016.875
75.8  1003.75
75.6  1019.6875
75.4  965.3125
75.2  1015.9375
75  975
74.8  968.75
74.6  962.8125
74.4  981.875
74.2  950.625
74  936.875
73.8  973.75
73.6  922.5
73.4  971.5625
73.2  916.25
73  934.6875
72.8  919.0625
72.6  913.4375
72.4  886.875
72.2  910.3125
72  876.5625
71.8  833.4375
71.6  879.375
71.4  878.4375
71.2  864.6875
71  855.3125
70.8  853.75
70.6  838.125
70.4  848.4375
70.2  812.5
70  818.4375
69.8  812.5
69.6  827.8125
69.4  830.9375
69.2  814.375
69  830.625
68.8  803.4375
68.6  797.5
68.4  826.875
68.2  799.6875
68  785.9375
67.8  800.625
67.6  738.125
67.4  784.6875
67.2  761.875
67  734.0625
66.8  776.25
66.6  772.1875
66.4  763.75
66.2  775.625
66  742.1875
65.8  735.9375
65.6  772.1875
65.4  754.0625
65.2  748.75
65  751.875
64.8  744.375
64.6  741.875
64.4  735.3125
64.2  758.4375
64  736.5625
63.8  711.25
63.6  746.5625
63.4  712.5
63.2  730.625
63  720
62.8  715.625
62.6  773.75
62.4  719.375
62.2  727.1875
62  740.3125
61.8  708.125
61.6  699.375
61.4  701.25
61.2  723.75
61  730
60.8  736.5625
60.6  719.0625
60.4  714.6875
60.2  695
60  733.125
59.8  710
59.6  708.4375
59.4  727.1875
59.2  695.625
59  709.375
58.8  705.3125
58.6  729.6875
58.4  694.375
58.2  709.0625
58  735.9375
57.8  703.75
57.6  713.125
57.4  723.4375
57.2  716.5625
57  743.4375
56.8  701.5625
56.6  718.125
56.4  722.8125
56.2  714.6875
56  718.125
55.8  708.75
55.6  726.5625
55.4  732.1875
55.2  710
55  685.3125
54.8  712.1875
54.6  716.875
54.4  696.25
54.2  719.6875
54  713.125
53.8  700.625
53.6  700.9375
53.4  693.125
53.2  695.9375
53  693.4375
52.8  705.9375
52.6  723.4375
52.4  717.8125
52.2  693.75
52  687.5
51.8  667.8125
51.6  695
51.4  714.375
51.2  725.3125
51  680.9375
50.8  697.1875
50.6  732.8125
50.4  707.1875
50.2  698.125
50  680.625
49.8  713.4375
49.6  709.375
49.4  731.5625
49.2  717.5
49  729.0625
48.8  730.9375
48.6  692.5
48.4  687.5
48.2  691.25
48  720.625
47.8  714.375
47.6  716.875
47.4  739.6875
47.2  733.125
47  703.75
46.8  710.3125
46.6  721.25
46.4  714.375
46.2  722.5
46  707.8125
45.8  725
45.6  716.5625
45.4  691.25
45.2  728.75
45  727.8125
44.8  712.8125
44.6  750
44.4  720.3125
44.2  715
44  708.75
43.8  712.1875
43.6  743.4375
43.4  728.4375
43.2  724.6875
43  731.25
42.8  700.3125
42.6  719.6875
42.4  748.75
42.2  717.8125
42  753.75
41.8  740
41.6  720.9375
41.4  716.875
41.2  739.0625
41  736.875
40.8  731.25
40.6  750
40.4  719.0625
40.2  737.8125
40  756.875
39.8  706.875
39.6  738.4375
39.4  756.875
39.2  734.375
39  728.4375
38.8  741.25
38.6  726.5625
38.4  737.8125
38.2  735.9375
38  751.875
37.8  748.75
37.6  743.4375
37.4  728.4375
37.2  760
37  745.3125
36.8  735.625
36.6  733.125
36.4  740.9375
36.2  751.875
36  739.6875
35.8  764.6875
35.6  790.625
35.4  719.0625
35.2  755.9375
35  733.125
34.8  748.125
34.6  707.5
34.4  682.5
34.2  723.4375
34  694.6875
33.8  710.9375
33.6  731.25
33.4  711.875
33.2  702.5
33  716.875
32.8  709.0625
32.6  715.9375
32.4  733.125
32.2  705.9375
32  707.5
31.8  657.1875
31.6  686.5625
31.4  709.375
31.2  713.125
31  720.9375
30.8  706.875
30.6  693.125
30.4  697.8125
30.2  687.8125
30  719.375
29.8  735
29.6  730.9375
29.4  710
29.2  766.875
29  764.6875
28.8  749.0625
28.6  763.125
28.4  768.4375
28.2  814.6875
28  804.0625
27.8  845
27.6  822.5
27.4  850
27.2  848.4375
27  818.4375
26.8  835
26.6  829.375
26.4  815.9375
26.2  812.1875
26  814.0625
25.8  774.6875
25.6  741.875
25.4  729.0625
25.2  747.5
25  725.625
24.8  686.5625
24.6  710
24.4  709.0625
24.2  727.1875
24  717.8125
23.8  723.75
23.6  761.25
23.4  762.5
23.2  762.1875
23  773.75
22.8  777.5
22.6  778.75
22.4  783.75
22.2  828.4375
22  830.9375
21.8  870.3125
21.6  916.25
21.4  952.8125
21.2  1012.8125
21  1120.625
20.8  1226.25
20.6  1375
20.4  1528.4375
20.2  1670
20  1863.75
19.8  2045
19.6  2276.5625
19.4  2445.625
19.2  2582.1875
19  2643.4375
18.8  2726.25
18.6  2670.3125
18.4  2608.125
18.2  2437.8125
18  2180.3125
17.8  1993.75
17.6  1678.125
17.4  1449.0625
17.2  1265
17  1054.6875
16.8  927.5
16.6  841.5625
16.4  740.625
16.2  690.9375
16  645.625
15.8  600
15.6  583.4375
15.4  539.6875
15.2  536.25
15  558.75
14.8  544.6875
14.6  549.6875
14.4  552.1875
14.2  530.9375
14  507.1875
13.8  498.75
13.6  520.9375
13.4  520.9375
13.2  522.1875
13  511.25
12.8  525
12.6  493.125
12.4  522.8125
12.2  515
12  518.4375
11.8  523.75
11.6  527.1875
11.4  530.9375
11.2  525.3125
11  544.6875
10.8  550.625
10.6  565.3125
10.4  605.3125
10.2  605.9375
10  630
9.8  633.75
9.6  634.0625
9.4  682.8125
9.2  680.9375
9  694.0625
8.8  728.125
8.6  701.875
8.4  705.3125
8.2  727.5
8  671.25
7.8  687.5
7.6  642.5
7.4  633.125
7.2  655
7  654.6875
6.8  618.4375
6.6  620.625
6.4  634.6875
6.2  601.25
6  584.375
5.8  580
5.6  572.1875
5.4  559.6875
5.2  555.3125
5  542.5
4.8  562.8125
4.6  528.75
4.4  523.75
4.2  499.6875
4  491.25
3.8  487.1875
3.6  495.3125
3.4  453.4375
3.2  453.125
3  443.125
2.8  433.4375
2.6  422.5
2.4  421.875
2.2  420.3125
2  424.6875
1.8  431.5625
1.6  425.3125
1.4  424.375
1.2  433.4375
1  412.8125
0.8  435.3125
0.6  416.25
0.4  418.75
0.2  425.3125
-2.2737368e-013  428.75
-0.2  420.9375
-0.4  424.375
-0.6  439.0625
-0.8  424.375
-1  443.75
-1.2  430
-1.4  429.0625
-1.6  428.75
-1.8  429.6875
-2  416.5625
-2.2  443.4375
-2.4  433.125
-2.6  444.0625
-2.8  415.3125
-3  444.0625
-3.2  433.4375
-3.4  436.25
-3.6  419.6875
-3.8  401.875
-4  421.25

