# Created by:        SpecsLab Prodigy, Version 4.60.2-r85849 
#
# XY-Serializer Export Settings:
#   Comment Prefix:           #
#   Output meta data:         yes
#   Energy Axis:              Binding Energy
#   Count Rate:               Counts per Second
#   Separate Scan Data:       no
#   Separate Channel Data:    no
#   External Channel Data:    yes
#   Transmission Function:    no
#   ErrorBar:                 no
#   Operation Results:        yes
#   Time Zone Format:         UTC
#
# Group:             Spectrum Group
#
# Region:            C1s
# Acquisition Date:  09/14/22 14:22:02 UTC
# Analysis Method:   XPS
# Analyzer:          Phoibos 100 R6
# Analyzer Lens:     LargeArea:1.5kV
# Analyzer Slit:     1:0.2x20\B:open
# Scan Mode:         FixedAnalyzerTransmission
# Curves/Scan:       1
# Values/Curve:      151
# Dwell Time:        0.8
# Excitation Energy: 1486.61
# Binding Energy:    295
# Pass Energy:       30
# Bias Voltage:      90
# Detector Voltage:  2600
# Eff. Workfunction: 4.309
# Source:            X-Ray Dummy
# Comment:           
#
# Cycle: 0
# Number of Scans: 1
#
# Cycle: 0, Curve: 0
# Acquisition Date: 09/14/22 14:22:02 UTC
#
# ColumnLabels: energy counts/s
#
295  767.5
294.9  708.75
294.8  790
294.7  760
294.6  705
294.5  753.75
294.4  751.25
294.3  678.75
294.2  725
294.1  710
294  772.5
293.9  790
293.8  752.5
293.7  755
293.6  727.5
293.5  681.25
293.4  747.5
293.3  736.25
293.2  737.5
293.1  711.25
293  751.25
292.9  765
292.8  702.5
292.7  745
292.6  770
292.5  748.75
292.4  763.75
292.3  701.25
292.2  763.75
292.1  742.5
292  697.5
291.9  735
291.8  750
291.7  716.25
291.6  740
291.5  725
291.4  760
291.3  717.5
291.2  717.5
291.1  722.5
291  730
290.9  736.25
290.8  795
290.7  776.25
290.6  800
290.5  783.75
290.4  810
290.3  756.25
290.2  760
290.1  701.25
290  760
289.9  725
289.8  682.5
289.7  780
289.6  730
289.5  768.75
289.4  726.25
289.3  815
289.2  740
289.1  715
289  803.75
288.9  751.25
288.8  738.75
288.7  706.25
288.6  770
288.5  771.25
288.4  731.25
288.3  748.75
288.2  740
288.1  741.25
288  746.25
287.9  766.25
287.8  748.75
287.7  807.5
287.6  795
287.5  780
287.4  780
287.3  735
287.2  746.25
287.1  778.75
287  742.5
286.9  770
286.8  797.5
286.7  746.25
286.6  782.5
286.5  766.25
286.4  795
286.3  823.75
286.2  782.5
286.1  796.25
286  786.25
285.9  813.75
285.8  846.25
285.7  807.5
285.6  837.5
285.5  843.75
285.4  920
285.3  780
285.2  818.75
285.1  791.25
285  836.25
284.9  766.25
284.8  807.5
284.7  738.75
284.6  851.25
284.5  831.25
284.4  776.25
284.3  760
284.2  743.75
284.1  762.5
284  725
283.9  770
283.8  742.5
283.7  798.75
283.6  750
283.5  720
283.4  743.75
283.3  745
283.2  756.25
283.1  688.75
283  775
282.9  691.25
282.8  727.5
282.7  767.5
282.6  688.75
282.5  767.5
282.4  750
282.3  706.25
282.2  755
282.1  760
282  735
281.9  750
281.8  733.75
281.7  713.75
281.6  711.25
281.5  767.5
281.4  733.75
281.3  750
281.2  713.75
281.1  810
281  755
280.9  725
280.8  758.75
280.7  677.5
280.6  747.5
280.5  732.5
280.4  723.75
280.3  756.25
280.2  766.25
280.1  747.5
280  773.75

# Region:            overview
# Acquisition Date:  09/14/22 14:26:31 UTC
# Analysis Method:   XPS
# Analyzer:          Phoibos 100 R6
# Analyzer Lens:     MediumArea:1.5kV
# Analyzer Slit:     1:0.2x20\B:open
# Scan Mode:         FixedAnalyzerTransmission
# Curves/Scan:       1
# Values/Curve:      1205
# Dwell Time:        0.2
# Excitation Energy: 1486.61
# Binding Energy:    1200
# Pass Energy:       50
# Bias Voltage:      90
# Detector Voltage:  2600
# Eff. Workfunction: 4.309
# Source:            X-Ray Dummy
# Comment:           
#
# Cycle: 0
# Number of Scans: 1
#
# Cycle: 0, Curve: 0
# Acquisition Date: 09/14/22 14:26:31 UTC
#
# ColumnLabels: energy counts/s
#
1200  5470
1199  5640
1198  5505
1197  5495
1196  5280
1195  5515
1194  5490
1193  5505
1192  5560
1191  5505
1190  5155
1189  5315
1188  5350
1187  5345
1186  5575
1185  5400
1184  5040
1183  5050
1182  4860
1181  5140
1180  4915
1179  5020
1178  5075
1177  4850
1176  5030
1175  5115
1174  4890
1173  5045
1172  4860
1171  5165
1170  4965
1169  5030
1168  5005
1167  5110
1166  5255
1165  5070
1164  5040
1163  4935
1162  5200
1161  5205
1160  4995
1159  5045
1158  5080
1157  5215
1156  5280
1155  5065
1154  5105
1153  5280
1152  5235
1151  5120
1150  4815
1149  5030
1148  5090
1147  5090
1146  4920
1145  4675
1144  4730
1143  4695
1142  4870
1141  4470
1140  4645
1139  4360
1138  4510
1137  4480
1136  4300
1135  4430
1134  4180
1133  4205
1132  4115
1131  4045
1130  4020
1129  4080
1128  4080
1127  4025
1126  3890
1125  4135
1124  4005
1123  3825
1122  3900
1121  3920
1120  3775
1119  3875
1118  4230
1117  3810
1116  4025
1115  3880
1114  3735
1113  4055
1112  4055
1111  3945
1110  4185
1109  3915
1108  3920
1107  3855
1106  4210
1105  4060
1104  3975
1103  4070
1102  4090
1101  4125
1100  4040
1099  4230
1098  4415
1097  4330
1096  4330
1095  4440
1094  4195
1093  4245
1092  4415
1091  4790
1090  5160
1089  5230
1088  6155
1087  6305
1086  6365
1085  6260
1084  5295
1083  5155
1082  4815
1081  4740
1080  5085
1079  5030
1078  4370
1077  4040
1076  3465
1075  3450
1074  3070
1073  3220
1072  3120
1071  3060
1070  3180
1069  3310
1068  2960
1067  2980
1066  3050
1065  3090
1064  3020
1063  3045
1062  2890
1061  3125
1060  3015
1059  3115
1058  2985
1057  2890
1056  2910
1055  2770
1054  2820
1053  2680
1052  2745
1051  2825
1050  2865
1049  2615
1048  2785
1047  2535
1046  2890
1045  2575
1044  2750
1043  2680
1042  2870
1041  2560
1040  2520
1039  2825
1038  2850
1037  2585
1036  2825
1035  2850
1034  2630
1033  2715
1032  2495
1031  2745
1030  2540
1029  2785
1028  2615
1027  2695
1026  2580
1025  2555
1024  2585
1023  2910
1022  2660
1021  2600
1020  2535
1019  2660
1018  2705
1017  2800
1016  2600
1015  2695
1014  2610
1013  2695
1012  2815
1011  2780
1010  2620
1009  2745
1008  2860
1007  2840
1006  2675
1005  2670
1004  2650
1003  2515
1002  2905
1001  2700
1000  2510
999  2840
998  2790
997  2755
996  2665
995  2895
994  2815
993  2795
992  2745
991  2750
990  2695
989  2730
988  2580
987  2905
986  2930
985  2710
984  2510
983  2435
982  2620
981  2700
980  2825
979  2745
978  2610
977  2965
976  3380
975  3240
974  3285
973  3180
972  3030
971  2865
970  2965
969  3030
968  2555
967  2685
966  2525
965  2400
964  2555
963  2635
962  2360
961  2490
960  2385
959  2545
958  2295
957  2630
956  2350
955  2460
954  2645
953  2665
952  2395
951  2570
950  2630
949  2490
948  2435
947  2650
946  2580
945  2545
944  2480
943  2310
942  2640
941  2430
940  2470
939  2625
938  2440
937  2670
936  2645
935  2475
934  2570
933  2660
932  2670
931  2510
930  2545
929  2525
928  2715
927  2610
926  2475
925  2640
924  2610
923  2445
922  2600
921  2615
920  2740
919  2610
918  2515
917  2430
916  2505
915  2665
914  2705
913  2615
912  2645
911  2330
910  2565
909  2525
908  2450
907  2590
906  2745
905  2670
904  2640
903  2690
902  2770
901  2585
900  2660
899  2580
898  2615
897  2770
896  2695
895  2610
894  2625
893  2550
892  2645
891  2700
890  2590
889  2670
888  2680
887  2715
886  2660
885  2845
884  2690
883  2745
882  2575
881  2840
880  2605
879  2560
878  2710
877  2735
876  2860
875  2685
874  2860
873  2870
872  2670
871  2635
870  2875
869  2920
868  2780
867  2575
866  2690
865  2680
864  2885
863  2485
862  2775
861  2980
860  2970
859  2735
858  2700
857  2880
856  2720
855  2720
854  2850
853  2745
852  2695
851  2855
850  2820
849  3040
848  2900
847  2740
846  2895
845  3000
844  2820
843  2905
842  2785
841  2985
840  2985
839  2925
838  2830
837  2960
836  2760
835  2950
834  3155
833  3185
832  2935
831  3115
830  3085
829  3155
828  3130
827  3300
826  3290
825  3045
824  3090
823  3075
822  2775
821  2620
820  3060
819  2925
818  2655
817  2995
816  2780
815  3035
814  2790
813  2940
812  3090
811  3155
810  2835
809  3030
808  3065
807  2920
806  3095
805  2950
804  3135
803  2985
802  3240
801  2855
800  2700
799  2810
798  2925
797  3005
796  3035
795  2995
794  2825
793  2765
792  2935
791  3070
790  2845
789  2820
788  3210
787  2990
786  3060
785  2860
784  3220
783  3050
782  3170
781  3020
780  3125
779  2950
778  3025
777  2975
776  2835
775  2955
774  3020
773  3115
772  3070
771  3265
770  2970
769  2965
768  2995
767  2950
766  3040
765  3015
764  3170
763  3120
762  2970
761  3205
760  3310
759  3205
758  3120
757  3315
756  3195
755  3135
754  3330
753  3155
752  3360
751  3250
750  3190
749  3170
748  3055
747  3145
746  3210
745  3240
744  3385
743  2915
742  3325
741  3320
740  3300
739  3045
738  3135
737  3225
736  3365
735  3280
734  3360
733  3285
732  3345
731  3525
730  3560
729  3405
728  2960
727  3185
726  3275
725  3265
724  3335
723  3360
722  3525
721  3350
720  3430
719  3460
718  3450
717  3455
716  3650
715  3525
714  3290
713  3515
712  3430
711  3565
710  3765
709  3670
708  3835
707  3690
706  4465
705  4820
704  4660
703  4825
702  3885
701  3905
700  3620
699  3500
698  3520
697  3345
696  3510
695  3660
694  3590
693  3385
692  3300
691  3430
690  3455
689  3205
688  3440
687  3330
686  3610
685  3345
684  3380
683  3405
682  3430
681  3440
680  3395
679  3435
678  3510
677  3555
676  3425
675  3305
674  3510
673  3475
672  3780
671  3810
670  4060
669  4520
668  5930
667  6450
666  6385
665  5120
664  4540
663  4130
662  3510
661  3440
660  3290
659  3215
658  3490
657  3485
656  3295
655  3275
654  2980
653  2915
652  2880
651  2790
650  2960
649  2935
648  2810
647  2905
646  3090
645  2940
644  2910
643  2795
642  2910
641  2870
640  2980
639  3070
638  3020
637  2870
636  2990
635  2850
634  2915
633  3035
632  2620
631  2915
630  3105
629  2735
628  2965
627  2895
626  2790
625  3240
624  2965
623  3090
622  2740
621  3230
620  2950
619  3220
618  3060
617  3035
616  3050
615  2730
614  2980
613  2935
612  3345
611  2965
610  3160
609  2840
608  3105
607  3090
606  2905
605  3045
604  3195
603  3025
602  3060
601  3040
600  3425
599  3235
598  3115
597  3205
596  3245
595  3130
594  3130
593  3000
592  3105
591  3200
590  3095
589  3230
588  3220
587  3180
586  3055
585  3215
584  2970
583  3205
582  3175
581  3260
580  3500
579  3110
578  3140
577  3390
576  3195
575  3460
574  3230
573  3150
572  3360
571  3310
570  3420
569  3530
568  3405
567  3085
566  3105
565  3540
564  3335
563  3420
562  3360
561  3470
560  3575
559  3340
558  3205
557  3360
556  3210
555  3355
554  3600
553  3290
552  3580
551  3510
550  3600
549  3705
548  3760
547  3530
546  3240
545  3550
544  3670
543  3385
542  3270
541  3350
540  3200
539  3505
538  3555
537  3400
536  3280
535  3200
534  3440
533  3860
532  4545
531  6325
530  5630
529  3830
528  3595
527  3195
526  3350
525  3015
524  3400
523  3160
522  3200
521  3670
520  3445
519  3410
518  3265
517  3240
516  3100
515  3030
514  3145
513  3090
512  3240
511  3190
510  3075
509  3340
508  3225
507  3175
506  3250
505  3380
504  3325
503  3390
502  3535
501  3225
500  3290
499  3340
498  3455
497  3670
496  3690
495  3915
494  3465
493  3145
492  3240
491  3350
490  3265
489  3460
488  3650
487  3935
486  3860
485  3555
484  3350
483  3265
482  3340
481  3225
480  3305
479  3405
478  3320
477  3250
476  3170
475  3540
474  3555
473  3615
472  3555
471  3500
470  3655
469  3425
468  3485
467  3520
466  3765
465  3735
464  3655
463  3740
462  3695
461  3540
460  3475
459  3270
458  3490
457  3385
456  3680
455  4720
454  8390
453  12845
452  10815
451  5675
450  3235
449  2900
448  4050
447  6905
446  13410
445  16765
444  10615
443  4415
442  2680
441  2285
440  2015
439  1680
438  1640
437  1770
436  2250
435  2400
434  2075
433  1805
432  1540
431  980
430  1245
429  1115
428  1155
427  1235
426  1160
425  1230
424  1095
423  1160
422  960
421  1130
420  1155
419  1130
418  1155
417  1085
416  1135
415  1145
414  1215
413  1130
412  975
411  1025
410  1010
409  1080
408  1050
407  1030
406  1025
405  1200
404  1085
403  1075
402  970
401  1025
400  1000
399  1185
398  1090
397  1045
396  1025
395  1020
394  1070
393  1170
392  1080
391  1070
390  1120
389  1145
388  1080
387  1130
386  1170
385  1160
384  1235
383  1245
382  1255
381  1090
380  1135
379  1185
378  1235
377  1090
376  1235
375  1170
374  1255
373  1005
372  1125
371  1055
370  1005
369  1105
368  1020
367  1160
366  1095
365  1065
364  915
363  1095
362  915
361  1020
360  950
359  1010
358  1105
357  985
356  1000
355  1040
354  1025
353  1170
352  985
351  1065
350  1095
349  1075
348  1070
347  1080
346  1045
345  1075
344  960
343  1030
342  1005
341  1165
340  905
339  1070
338  1100
337  1140
336  1020
335  1070
334  1105
333  1060
332  950
331  980
330  1165
329  1035
328  1130
327  1055
326  1040
325  1090
324  1175
323  1180
322  1070
321  970
320  1145
319  1100
318  1070
317  1050
316  1140
315  1110
314  1095
313  1065
312  1075
311  1075
310  1155
309  1145
308  1145
307  1155
306  985
305  990
304  975
303  1120
302  1130
301  1090
300  1130
299  1220
298  1025
297  1045
296  1040
295  1105
294  995
293  1035
292  1160
291  1140
290  1080
289  1080
288  1065
287  1310
286  1240
285  1085
284  1135
283  990
282  980
281  1050
280  1095
279  1045
278  1055
277  1060
276  1005
275  1095
274  1170
273  1060
272  1080
271  1085
270  1110
269  1055
268  1040
267  1180
266  1050
265  1085
264  1080
263  1185
262  1055
261  1110
260  1115
259  1075
258  1045
257  1155
256  1125
255  1140
254  1180
253  1155
252  1075
251  1105
250  1150
249  1140
248  1245
247  1165
246  1115
245  1220
244  1095
243  1270
242  1330
241  1145
240  1075
239  1150
238  1085
237  1085
236  1135
235  1145
234  1115
233  1210
232  1125
231  1040
230  1045
229  1180
228  1150
227  1065
226  1145
225  1000
224  1080
223  1185
222  1125
221  1130
220  1140
219  1005
218  1235
217  1100
216  1095
215  1115
214  1085
213  1180
212  1140
211  1150
210  1105
209  1060
208  1050
207  1175
206  1100
205  1125
204  1105
203  1140
202  965
201  1160
200  1210
199  1045
198  1170
197  1185
196  1010
195  1340
194  1220
193  1170
192  1390
191  1205
190  1055
189  1145
188  1090
187  1100
186  1065
185  1225
184  1020
183  1180
182  1210
181  1155
180  1315
179  1330
178  1165
177  1135
176  1075
175  1265
174  1280
173  1150
172  1225
171  1210
170  1350
169  1270
168  1230
167  1050
166  1230
165  1285
164  1190
163  1180
162  1230
161  1290
160  1210
159  1230
158  1205
157  1095
156  1240
155  1155
154  1240
153  1295
152  1285
151  1140
150  1265
149  1345
148  1270
147  1180
146  1265
145  1185
144  1195
143  1235
142  1170
141  1475
140  1290
139  1260
138  1275
137  1180
136  1180
135  1445
134  1405
133  1310
132  1195
131  1110
130  1390
129  1275
128  1380
127  1220
126  1240
125  1545
124  1415
123  1535
122  1440
121  1250
120  1360
119  1290
118  1240
117  1125
116  1265
115  1175
114  1165
113  1315
112  1170
111  1265
110  1255
109  1405
108  1300
107  1265
106  1250
105  1325
104  1260
103  1155
102  1245
101  1325
100  1220
99  1280
98  1140
97  1210
96  1250
95  1410
94  1345
93  1470
92  1340
91  1400
90  1540
89  1320
88  1390
87  1510
86  1530
85  1595
84  1715
83  1520
82  1615
81  1665
80  1790
79  1715
78  1515
77  1455
76  1405
75  1215
74  1240
73  1160
72  1360
71  1145
70  1160
69  940
68  1050
67  1005
66  950
65  1040
64  1005
63  1045
62  1010
61  870
60  880
59  890
58  1020
57  925
56  925
55  890
54  990
53  1020
52  745
51  875
50  870
49  875
48  890
47  980
46  980
45  830
44  920
43  980
42  945
41  945
40  1125
39  860
38  995
37  850
36  1045
35  930
34  955
33  995
32  1040
31  930
30  1020
29  1085
28  995
27  1090
26  1205
25  1045
24  1115
23  1135
22  1190
21  1525
20  2405
19  3660
18  3425
17  1945
16  875
15  775
14  690
13  790
12  685
11  775
10  875
9  955
8  825
7  870
6  775
5  890
4  640
3  605
2  605
1  645
-2.2737368e-013  630
-1  545
-2  630
-3  490
-4  610

# Region:            In3d
# Acquisition Date:  09/14/22 14:29:53 UTC
# Analysis Method:   XPS
# Analyzer:          Phoibos 100 R6
# Analyzer Lens:     LargeArea:1.5kV
# Analyzer Slit:     1:0.2x20\B:open
# Scan Mode:         FixedAnalyzerTransmission
# Curves/Scan:       1
# Values/Curve:      231
# Dwell Time:        0.8
# Excitation Energy: 1486.61
# Binding Energy:    460
# Pass Energy:       30
# Bias Voltage:      90
# Detector Voltage:  2600
# Eff. Workfunction: 4.309
# Source:            X-Ray Dummy
# Comment:           
#
# Cycle: 0
# Number of Scans: 1
#
# Cycle: 0, Curve: 0
# Acquisition Date: 09/14/22 14:29:53 UTC
#
# ColumnLabels: energy counts/s
#
460  2612.5
459.9  2643.75
459.8  2625
459.7  2596.25
459.6  2657.5
459.5  2603.75
459.4  2732.5
459.3  2550
459.2  2743.75
459.1  2593.75
459  2601.25
458.9  2586.25
458.8  2606.25
458.7  2572.5
458.6  2561.25
458.5  2605
458.4  2592.5
458.3  2626.25
458.2  2646.25
458.1  2582.5
458  2572.5
457.9  2407.5
457.8  2596.25
457.7  2557.5
457.6  2600
457.5  2627.5
457.4  2540
457.3  2567.5
457.2  2638.75
457.1  2635
457  2653.75
456.9  2716.25
456.8  2628.75
456.7  2646.25
456.6  2610
456.5  2693.75
456.4  2701.25
456.3  2816.25
456.2  2751.25
456.1  2991.25
456  2906.25
455.9  2971.25
455.8  2987.5
455.7  3075
455.6  3092.5
455.5  3242.5
455.4  3242.5
455.3  3360
455.2  3408.75
455.1  3393.75
455  3667.5
454.9  3810
454.8  4026.25
454.7  4291.25
454.6  4532.5
454.5  4726.25
454.4  4812.5
454.3  5168.75
454.2  5635
454.1  5955
454  6410
453.9  6748.75
453.8  7030
453.7  7596.25
453.6  7922.5
453.5  8380
453.4  9015
453.3  9050
453.2  9653.75
453.1  9911.25
453  10295
452.9  10615
452.8  10636.25
452.7  10578.75
452.6  10535
452.5  10596.25
452.4  10245
452.3  9850
452.2  9313.75
452.1  8912.5
452  8080
451.9  7566.25
451.8  7032.5
451.7  6260
451.6  5782.5
451.5  5265
451.4  4706.25
451.3  4171.25
451.2  3778.75
451.1  3505
451  3285
450.9  2953.75
450.8  2800
450.7  2791.25
450.6  2642.5
450.5  2491.25
450.4  2397.5
450.3  2302.5
450.2  2302.5
450.1  2221.25
450  2297.5
449.9  2228.75
449.8  2162.5
449.7  2213.75
449.6  2163.75
449.5  2115
449.4  2202.5
449.3  2191.25
449.2  2233.75
449.1  2053.75
449  2330
448.9  2271.25
448.8  2317.5
448.7  2240
448.6  2423.75
448.5  2485
448.4  2583.75
448.3  2525
448.2  2705
448.1  2767.5
448  2776.25
447.9  2916.25
447.8  3127.5
447.7  3235
447.6  3536.25
447.5  3580
447.4  3752.5
447.3  4171.25
447.2  4312.5
447.1  4468.75
447  4955
446.9  5418.75
446.8  5921.25
446.7  6460
446.6  6751.25
446.5  7235
446.4  7900
446.3  8400
446.2  9148.75
446.1  9536.25
446  10446.25
445.9  10907.5
445.8  11280
445.7  11926.25
445.6  12526.25
445.5  12887.5
445.4  13617.5
445.3  13736.25
445.2  14063.75
445.1  14038.75
445  13683.75
444.9  13657.5
444.8  12945
444.7  12530
444.6  11578.75
444.5  10920
444.4  10101.25
444.3  9118.75
444.2  8242.5
444.1  7655
444  6613.75
443.9  6091.25
443.8  5411.25
443.7  4706.25
443.6  4270
443.5  4027.5
443.4  3428.75
443.3  3265
443.2  3000
443.1  2906.25
443  2763.75
442.9  2603.75
442.8  2593.75
442.7  2415
442.6  2303.75
442.5  2335
442.4  2307.5
442.3  2221.25
442.2  2101.25
442.1  2096.25
442  1978.75
441.9  1951.25
441.8  1892.5
441.7  1795
441.6  1850
441.5  1782.5
441.4  1758.75
441.3  1770
441.2  1632.5
441.1  1600
441  1663.75
440.9  1622.5
440.8  1597.5
440.7  1538.75
440.6  1558.75
440.5  1461.25
440.4  1455
440.3  1532.5
440.2  1491.25
440.1  1511.25
440  1418.75
439.9  1355
439.8  1341.25
439.7  1356.25
439.6  1302.5
439.5  1295
439.4  1297.5
439.3  1233.75
439.2  1231.25
439.1  1180
439  1187.5
438.9  1210
438.8  1220
438.7  1171.25
438.6  1143.75
438.5  1087.5
438.4  1178.75
438.3  1153.75
438.2  1226.25
438.1  1130
438  1145
437.9  1110
437.8  1208.75
437.7  1222.5
437.6  1132.5
437.5  1237.5
437.4  1205
437.3  1258.75
437.2  1300
437.1  1353.75
437  1338.75

# Region:            Sn3d
# Acquisition Date:  09/14/22 14:33:01 UTC
# Analysis Method:   XPS
# Analyzer:          Phoibos 100 R6
# Analyzer Lens:     LargeArea:1.5kV
# Analyzer Slit:     1:0.2x20\B:open
# Scan Mode:         FixedAnalyzerTransmission
# Curves/Scan:       1
# Values/Curve:      231
# Dwell Time:        0.8
# Excitation Energy: 1486.61
# Binding Energy:    503
# Pass Energy:       30
# Bias Voltage:      90
# Detector Voltage:  2600
# Eff. Workfunction: 4.309
# Source:            X-Ray Dummy
# Comment:           
#
# Cycle: 0
# Number of Scans: 1
#
# Cycle: 0, Curve: 0
# Acquisition Date: 09/14/22 14:33:01 UTC
#
# ColumnLabels: energy counts/s
#
503  2607.5
502.9  2712.5
502.8  2558.75
502.7  2657.5
502.6  2752.5
502.5  2618.75
502.4  2618.75
502.3  2606.25
502.2  2607.5
502.1  2735
502  2613.75
501.9  2702.5
501.8  2638.75
501.7  2653.75
501.6  2495
501.5  2633.75
501.4  2543.75
501.3  2645
501.2  2658.75
501.1  2657.5
501  2591.25
500.9  2560
500.8  2621.25
500.7  2642.5
500.6  2585
500.5  2631.25
500.4  2580
500.3  2602.5
500.2  2676.25
500.1  2688.75
500  2603.75
499.9  2643.75
499.8  2592.5
499.7  2606.25
499.6  2545
499.5  2583.75
499.4  2656.25
499.3  2657.5
499.2  2646.25
499.1  2668.75
499  2680
498.9  2651.25
498.8  2626.25
498.7  2701.25
498.6  2585
498.5  2753.75
498.4  2767.5
498.3  2777.5
498.2  2608.75
498.1  2661.25
498  2710
497.9  2628.75
497.8  2726.25
497.7  2725
497.6  2736.25
497.5  2790
497.4  2626.25
497.3  2751.25
497.2  2733.75
497.1  2826.25
497  2817.5
496.9  2798.75
496.8  2896.25
496.7  2861.25
496.6  3006.25
496.5  2972.5
496.4  3140
496.3  3027.5
496.2  3112.5
496.1  3018.75
496  3085
495.9  3073.75
495.8  3115
495.7  3161.25
495.6  3126.25
495.5  3212.5
495.4  3201.25
495.3  3071.25
495.2  3022.5
495.1  3061.25
495  3026.25
494.9  2977.5
494.8  3002.5
494.7  2987.5
494.6  2935
494.5  2863.75
494.4  2726.25
494.3  2853.75
494.2  2785
494.1  2855
494  2643.75
493.9  2730
493.8  2685
493.7  2717.5
493.6  2565
493.5  2600
493.4  3511.25
493.3  2521.25
493.2  2528.75
493.1  2576.25
493  2682.5
492.9  2573.75
492.8  2552.5
492.7  2523.75
492.6  2688.75
492.5  2583.75
492.4  2585
492.3  2567.5
492.2  2580
492.1  2608.75
492  2376.25
491.9  2490
491.8  2515
491.7  2517.5
491.6  2516.25
491.5  2720
491.4  2663.75
491.3  2451.25
491.2  2573.75
491.1  2585
491  2506.25
490.9  2545
490.8  2595
490.7  2630
490.6  2601.25
490.5  2635
490.4  2545
490.3  2525
490.2  2643.75
490.1  2610
490  2761.25
489.9  2577.5
489.8  2642.5
489.7  2765
489.6  2710
489.5  2586.25
489.4  2817.5
489.3  2832.5
489.2  2772.5
489.1  2836.25
489  2816.25
488.9  2867.5
488.8  2830
488.7  2815
488.6  2983.75
488.5  2958.75
488.4  2995
488.3  3112.5
488.2  3071.25
488.1  3057.5
488  3060
487.9  3106.25
487.8  3092.5
487.7  3158.75
487.6  3231.25
487.5  3142.5
487.4  3303.75
487.3  3251.25
487.2  3345
487.1  3156.25
487  3328.75
486.9  3172.5
486.8  3250
486.7  3235
486.6  3322.5
486.5  3207.5
486.4  3122.5
486.3  3152.5
486.2  3033.75
486.1  3002.5
486  3010
485.9  2945
485.8  2907.5
485.7  2768.75
485.6  2921.25
485.5  2858.75
485.4  2696.25
485.3  2703.75
485.2  2553.75
485.1  2677.5
485  2687.5
484.9  2715
484.8  2681.25
484.7  2533.75
484.6  2608.75
484.5  2628.75
484.4  2643.75
484.3  2567.5
484.2  2510
484.1  2653.75
484  2660
483.9  2555
483.8  2653.75
483.7  2533.75
483.6  2571.25
483.5  2581.25
483.4  2561.25
483.3  2535
483.2  2615
483.1  2616.25
483  2460
482.9  2527.5
482.8  2587.5
482.7  2572.5
482.6  2466.25
482.5  2548.75
482.4  2443.75
482.3  2575
482.2  2643.75
482.1  2637.5
482  2605
481.9  2513.75
481.8  2546.25
481.7  2553.75
481.6  2596.25
481.5  2545
481.4  2535
481.3  2542.5
481.2  2486.25
481.1  2528.75
481  2593.75
480.9  2613.75
480.8  2531.25
480.7  2575
480.6  2557.5
480.5  2452.5
480.4  2578.75
480.3  2558.75
480.2  2520
480.1  2481.25
480  2593.75

# Region:            O1s
# Acquisition Date:  09/14/22 14:52:20 UTC
# Analysis Method:   XPS
# Analyzer:          Phoibos 100 R6
# Analyzer Lens:     LargeArea:1.5kV
# Analyzer Slit:     1:0.2x20\B:open
# Scan Mode:         FixedAnalyzerTransmission
# Curves/Scan:       1
# Values/Curve:      111
# Dwell Time:        0.8
# Excitation Energy: 1486.61
# Binding Energy:    538
# Pass Energy:       30
# Bias Voltage:      90
# Detector Voltage:  2600
# Eff. Workfunction: 4.309
# Source:            X-Ray Dummy
# Comment:           
#
# Cycle: 0
# Number of Scans: 6
#
# Cycle: 0, Curve: 0
# Acquisition Date: 09/14/22 14:52:20 UTC
#
# ColumnLabels: energy counts/s
#
538  2844.5833
537.9  2789.1667
537.8  2799.7917
537.7  2792.9167
537.6  2753.75
537.5  2757.2917
537.4  2762.9167
537.3  2774.1667
537.2  2803.5417
537.1  2800.4167
537  2775.625
536.9  2729.1667
536.8  2781.4583
536.7  2743.125
536.6  2774.1667
536.5  2745.8333
536.4  2806.875
536.3  2787.0833
536.2  2768.125
536.1  2766.0417
536  2768.5417
535.9  2754.5833
535.8  2775.4167
535.7  2768.3333
535.6  2781.0417
535.5  2816.6667
535.4  2754.375
535.3  2770.4167
535.2  2739.5833
535.1  2786.6667
535  2757.5
534.9  2792.0833
534.8  2812.2917
534.7  2786.6667
534.6  2822.9167
534.5  2817.2917
534.4  2801.25
534.3  2802.0833
534.2  2869.375
534.1  2878.9583
534  2870.4167
533.9  2903.5417
533.8  2932.0833
533.7  2962.0833
533.6  2954.375
533.5  2995.8333
533.4  2983.5417
533.3  3077.0833
533.2  3133.75
533.1  3107.7083
533  3159.375
532.9  3227.5
532.8  3314.375
532.7  3351.6667
532.6  3424.7917
532.5  3552.0833
532.4  3599.375
532.3  3743.125
532.2  3757.9167
532.1  3906.25
532  4062.7083
531.9  4191.0417
531.8  4308.5417
531.7  4419.5833
531.6  4650.2083
531.5  4832.9167
531.4  4866.875
531.3  5062.5
531.2  5237.5
531.1  5274.7917
531  5425
530.9  5488.9583
530.8  5497.9167
530.7  5564.7917
530.6  5557.0833
530.5  5426.25
530.4  5325.2083
530.3  5176.25
530.2  5042.9167
530.1  4861.25
530  4635
529.9  4440.8333
529.8  4240
529.7  4035.625
529.6  3817.0833
529.5  3597.7083
529.4  3486.4583
529.3  3399.7917
529.2  3179.1667
529.1  3146.25
529  3058.125
528.9  2962.2917
528.8  2939.7917
528.7  2859.1667
528.6  2831.0417
528.5  2778.75
528.4  2759.1667
528.3  2769.7917
528.2  2745.4167
528.1  2700
528  2713.5417
527.9  2662.5
527.8  2697.0833
527.7  2702.0833
527.6  2680
527.5  2667.2917
527.4  2656.4583
527.3  2701.6667
527.2  2682.0833
527.1  2670
527  2678.5417

# Region:            Si2p
# Acquisition Date:  09/14/22 14:46:52 UTC
# Analysis Method:   XPS
# Analyzer:          Phoibos 100 R6
# Analyzer Lens:     LargeArea:1.5kV
# Analyzer Slit:     1:0.2x20\B:open
# Scan Mode:         FixedAnalyzerTransmission
# Curves/Scan:       1
# Values/Curve:      101
# Dwell Time:        0.8
# Excitation Energy: 1486.61
# Binding Energy:    110
# Pass Energy:       30
# Bias Voltage:      90
# Detector Voltage:  2600
# Eff. Workfunction: 4.309
# Source:            X-Ray Dummy
# Comment:           
#
# Cycle: 0
# Number of Scans: 3
#
# Cycle: 0, Curve: 0
# Acquisition Date: 09/14/22 14:46:52 UTC
#
# ColumnLabels: energy counts/s
#
110  726.66667
109.9  751.66667
109.8  791.66667
109.7  749.58333
109.6  746.25
109.5  745.83333
109.4  740
109.3  732.91667
109.2  749.58333
109.1  745.41667
109  762.5
108.9  778.33333
108.8  758.33333
108.7  765.83333
108.6  744.16667
108.5  760.41667
108.4  705.41667
108.3  750.41667
108.2  743.33333
108.1  738.75
108  745.83333
107.9  759.58333
107.8  753.75
107.7  748.33333
107.6  752.91667
107.5  718.33333
107.4  745.83333
107.3  767.08333
107.2  748.75
107.1  757.91667
107  760.83333
106.9  765.83333
106.8  750.41667
106.7  792.91667
106.6  756.66667
106.5  752.08333
106.4  821.25
106.3  768.75
106.2  754.58333
106.1  793.33333
106  751.66667
105.9  770.83333
105.8  774.16667
105.7  756.66667
105.6  746.66667
105.5  754.58333
105.4  781.25
105.3  753.33333
105.2  760.41667
105.1  776.66667
105  807.91667
104.9  777.5
104.8  776.25
104.7  757.91667
104.6  775.83333
104.5  765.41667
104.4  778.75
104.3  780
104.2  813.75
104.1  782.08333
104  756.25
103.9  763.33333
103.8  760.83333
103.7  796.66667
103.6  790.41667
103.5  780.83333
103.4  787.08333
103.3  766.25
103.2  764.58333
103.1  779.16667
103  795.83333
102.9  786.66667
102.8  787.08333
102.7  765.83333
102.6  768.75
102.5  780
102.4  762.91667
102.3  747.5
102.2  777.5
102.1  767.91667
102  778.75
101.9  763.33333
101.8  753.75
101.7  764.58333
101.6  786.25
101.5  755.83333
101.4  796.25
101.3  789.16667
101.2  750.41667
101.1  790.83333
101  767.08333
100.9  766.25
100.8  739.58333
100.7  795.41667
100.6  800
100.5  787.91667
100.4  813.75
100.3  786.66667
100.2  792.5
100.1  762.5
100  775.83333

# Region:            N1s
# Acquisition Date:  09/14/22 14:43:01 UTC
# Analysis Method:   XPS
# Analyzer:          Phoibos 100 R6
# Analyzer Lens:     LargeArea:1.5kV
# Analyzer Slit:     1:0.2x20\B:open
# Scan Mode:         FixedAnalyzerTransmission
# Curves/Scan:       1
# Values/Curve:      121
# Dwell Time:        0.8
# Excitation Energy: 1486.61
# Binding Energy:    409
# Pass Energy:       30
# Bias Voltage:      90
# Detector Voltage:  2600
# Eff. Workfunction: 4.309
# Source:            X-Ray Dummy
# Comment:           
#
# Cycle: 0
# Number of Scans: 2
#
# Cycle: 0, Curve: 0
# Acquisition Date: 09/14/22 14:43:01 UTC
#
# ColumnLabels: energy counts/s
#
409  817.5
408.9  824.375
408.8  831.875
408.7  806.875
408.6  794.375
408.5  756.875
408.4  836.25
408.3  833.75
408.2  816.25
408.1  795
408  825.625
407.9  788.75
407.8  792.5
407.7  773.75
407.6  776.875
407.5  815
407.4  822.5
407.3  798.125
407.2  759.375
407.1  756.875
407  821.25
406.9  786.875
406.8  808.125
406.7  792.5
406.6  762.5
406.5  789.375
406.4  810.625
406.3  801.875
406.2  836.875
406.1  798.75
406  786.25
405.9  767.5
405.8  810.625
405.7  800
405.6  831.875
405.5  820
405.4  804.375
405.3  813.125
405.2  821.875
405.1  780.625
405  786.875
404.9  803.75
404.8  806.875
404.7  800
404.6  786.875
404.5  791.25
404.4  787.5
404.3  821.25
404.2  839.375
404.1  818.125
404  772.5
403.9  843.75
403.8  796.875
403.7  779.375
403.6  809.375
403.5  785
403.4  790.625
403.3  829.375
403.2  791.875
403.1  848.125
403  833.125
402.9  773.125
402.8  764.375
402.7  755
402.6  860.625
402.5  800
402.4  856.25
402.3  823.125
402.2  813.75
402.1  801.875
402  811.25
401.9  787.5
401.8  761.25
401.7  791.25
401.6  760
401.5  773.75
401.4  791.875
401.3  807.5
401.2  812.5
401.1  809.375
401  798.75
400.9  783.125
400.8  808.125
400.7  797.5
400.6  790
400.5  815.625
400.4  806.875
400.3  778.75
400.2  824.375
400.1  766.875
400  810
399.9  843.75
399.8  833.125
399.7  826.875
399.6  836.25
399.5  793.75
399.4  820.625
399.3  805
399.2  791.875
399.1  841.25
399  805
398.9  825
398.8  813.75
398.7  775.625
398.6  805
398.5  803.125
398.4  808.75
398.3  855.625
398.2  763.125
398.1  825.625
398  810
397.9  792.5
397.8  770.625
397.7  807.5
397.6  796.875
397.5  820
397.4  797.5
397.3  825.625
397.2  800
397.1  782.5
397  815

# Region:            Si2s
# Acquisition Date:  09/14/22 14:47:50 UTC
# Analysis Method:   XPS
# Analyzer:          Phoibos 100 R6
# Analyzer Lens:     LargeArea:1.5kV
# Analyzer Slit:     1:0.2x20\B:open
# Scan Mode:         FixedAnalyzerTransmission
# Curves/Scan:       1
# Values/Curve:      71
# Dwell Time:        0.8
# Excitation Energy: 1486.61
# Binding Energy:    157
# Pass Energy:       30
# Bias Voltage:      90
# Detector Voltage:  2600
# Eff. Workfunction: 4.309
# Source:            X-Ray Dummy
# Comment:           
#
# Cycle: 0
# Number of Scans: 3
#
# Cycle: 0, Curve: 0
# Acquisition Date: 09/14/22 14:47:50 UTC
#
# ColumnLabels: energy counts/s
#
157  750.41667
156.9  818.33333
156.8  745
156.7  742.08333
156.6  795.41667
156.5  814.58333
156.4  770
156.3  791.66667
156.2  762.08333
156.1  749.58333
156  768.33333
155.9  746.25
155.8  748.33333
155.7  809.58333
155.6  773.75
155.5  754.58333
155.4  759.58333
155.3  803.75
155.2  770.41667
155.1  758.75
155  790.41667
154.9  778.33333
154.8  748.33333
154.7  752.91667
154.6  752.5
154.5  744.16667
154.4  770.83333
154.3  760.83333
154.2  773.33333
154.1  799.58333
154  780
153.9  782.5
153.8  748.33333
153.7  795.83333
153.6  732.08333
153.5  758.33333
153.4  772.5
153.3  776.25
153.2  744.58333
153.1  747.08333
153  747.08333
152.9  741.25
152.8  781.25
152.7  774.16667
152.6  748.33333
152.5  763.75
152.4  761.66667
152.3  750.83333
152.2  779.16667
152.1  750.83333
152  771.66667
151.9  750.41667
151.8  800.41667
151.7  777.5
151.6  752.5
151.5  739.58333
151.4  796.25
151.3  752.91667
151.2  750.41667
151.1  777.08333
151  774.58333
150.9  752.91667
150.8  777.08333
150.7  801.66667
150.6  750.41667
150.5  760.41667
150.4  794.58333
150.3  760.41667
150.2  763.33333
150.1  787.08333
150  731.66667

