# Created by:        SpecsLab Prodigy, Version 4.60.2-r85849 
#
# XY-Serializer Export Settings:
#   Comment Prefix:           #
#   Output meta data:         yes
#   Energy Axis:              Binding Energy
#   Count Rate:               Counts per Second
#   Separate Scan Data:       no
#   Separate Channel Data:    no
#   External Channel Data:    yes
#   Transmission Function:    no
#   ErrorBar:                 no
#   Operation Results:        yes
#   Time Zone Format:         UTC
#
# Group:             Spectrum Group
#
# Region:            C1s
# Acquisition Date:  09/23/22 10:57:48 UTC
# Analysis Method:   XPS
# Analyzer:          Phoibos 100 R6
# Analyzer Lens:     LargeArea:1.5kV
# Analyzer Slit:     1:0.2x20\B:open
# Scan Mode:         FixedAnalyzerTransmission
# Curves/Scan:       1
# Values/Curve:      151
# Dwell Time:        0.8
# Excitation Energy: 1486.61
# Binding Energy:    295
# Pass Energy:       30
# Bias Voltage:      90
# Detector Voltage:  2600
# Eff. Workfunction: 4.309
# Source:            X-Ray Dummy
# Comment:           
#
# Cycle: 0
# Number of Scans: 8
#
# Cycle: 0, Curve: 0
# Acquisition Date: 09/23/22 10:57:48 UTC
#
# ColumnLabels: energy counts/s
#
295  860
294.9  876.71875
294.8  876.40625
294.7  890.78125
294.6  879.6875
294.5  885
294.4  876.25
294.3  876.875
294.2  872.5
294.1  881.71875
294  883.75
293.9  866.40625
293.8  869.0625
293.7  867.65625
293.6  872.34375
293.5  879.6875
293.4  863.4375
293.3  898.90625
293.2  879.53125
293.1  904.0625
293  868.75
292.9  872.03125
292.8  887.8125
292.7  872.1875
292.6  891.71875
292.5  865.625
292.4  863.28125
292.3  871.71875
292.2  890.46875
292.1  872.1875
292  859.53125
291.9  890.46875
291.8  861.71875
291.7  895.15625
291.6  877.34375
291.5  864.84375
291.4  901.5625
291.3  880.3125
291.2  867.34375
291.1  858.75
291  900
290.9  910.78125
290.8  896.875
290.7  906.25
290.6  887.34375
290.5  877.1875
290.4  896.71875
290.3  900.3125
290.2  897.34375
290.1  891.09375
290  890.625
289.9  908.4375
289.8  890.3125
289.7  905
289.6  919.53125
289.5  901.71875
289.4  906.25
289.3  920.3125
289.2  919.6875
289.1  903.4375
289  933.90625
288.9  921.875
288.8  916.5625
288.7  944.53125
288.6  957.8125
288.5  946.25
288.4  963.59375
288.3  958.59375
288.2  983.125
288.1  978.28125
288  991.875
287.9  1006.7188
287.8  1006.7188
287.7  1009.8438
287.6  1011.5625
287.5  1033.75
287.4  1080.7813
287.3  1076.4063
287.2  1054.8438
287.1  1076.5625
287  1042.0313
286.9  1059.2188
286.8  1073.5938
286.7  1061.0938
286.6  1082.3438
286.5  1061.4063
286.4  1065.4688
286.3  1074.8438
286.2  1079.6875
286.1  1041.4063
286  1046.5625
285.9  1045.4688
285.8  1037.6563
285.7  1000.9375
285.6  1007.0313
285.5  1004.2188
285.4  1022.0313
285.3  1026.875
285.2  999.0625
285.1  974.21875
285  961.09375
284.9  955.78125
284.8  928.28125
284.7  912.34375
284.6  938.28125
284.5  917.8125
284.4  881.40625
284.3  906.09375
284.2  891.25
284.1  952.34375
284  888.125
283.9  891.25
283.8  901.5625
283.7  881.25
283.6  889.84375
283.5  889.84375
283.4  879.6875
283.3  883.28125
283.2  870
283.1  903.75
283  865.46875
282.9  885.78125
282.8  857.34375
282.7  861.09375
282.6  883.90625
282.5  862.65625
282.4  885.625
282.3  874.53125
282.2  872.03125
282.1  873.125
282  876.71875
281.9  855.3125
281.8  893.75
281.7  871.25
281.6  861.71875
281.5  886.09375
281.4  869.0625
281.3  875.3125
281.2  869.375
281.1  876.40625
281  881.5625
280.9  861.875
280.8  865
280.7  880.46875
280.6  860.15625
280.5  873.4375
280.4  883.4375
280.3  873.125
280.2  857.03125
280.1  891.40625
280  881.875

# Region:            In3d
# Acquisition Date:  09/23/22 10:09:50 UTC
# Analysis Method:   XPS
# Analyzer:          Phoibos 100 R6
# Analyzer Lens:     LargeArea:1.5kV
# Analyzer Slit:     1:0.2x20\B:open
# Scan Mode:         FixedAnalyzerTransmission
# Curves/Scan:       1
# Values/Curve:      231
# Dwell Time:        0.8
# Excitation Energy: 1486.61
# Binding Energy:    460
# Pass Energy:       30
# Bias Voltage:      90
# Detector Voltage:  2600
# Eff. Workfunction: 4.309
# Source:            X-Ray Dummy
# Comment:           
#
# Cycle: 0
# Number of Scans: 2
#
# Cycle: 0, Curve: 0
# Acquisition Date: 09/23/22 10:09:50 UTC
#
# ColumnLabels: energy counts/s
#
460  2921.25
459.9  2867.5
459.8  2943.125
459.7  2995
459.6  2826.25
459.5  2815
459.4  2859.375
459.3  2881.875
459.2  2859.375
459.1  2850
459  2914.375
458.9  2866.875
458.8  2841.875
458.7  2773.75
458.6  2802.5
458.5  2869.375
458.4  2864.375
458.3  2833.75
458.2  2808.75
458.1  2840.625
458  2790.625
457.9  2753.75
457.8  2808.125
457.7  2810
457.6  2801.25
457.5  2845
457.4  2870
457.3  2881.25
457.2  2796.875
457.1  2878.125
457  2849.375
456.9  2868.75
456.8  2954.375
456.7  2910
456.6  2866.25
456.5  2936.875
456.4  2921.25
456.3  3023.75
456.2  3044.375
456.1  3089.375
456  3131.25
455.9  3234.375
455.8  3273.125
455.7  3377.5
455.6  3380.625
455.5  3564.375
455.4  3686.875
455.3  3813.125
455.2  3954.375
455.1  4090.625
455  4311.25
454.9  4412.5
454.8  4727.5
454.7  5058.125
454.6  5246.875
454.5  5503.125
454.4  5814.375
454.3  6161.25
454.2  6675
454.1  7037.5
454  7471.25
453.9  7894.375
453.8  8316.875
453.7  8660
453.6  9172.5
453.5  9576.25
453.4  10039.375
453.3  10218.125
453.2  10589.375
453.1  10681.875
453  11024.375
452.9  11038.75
452.8  11036.875
452.7  10926.875
452.6  10626.25
452.5  10433.125
452.4  9770
452.3  9485.625
452.2  8867.5
452.1  8385
452  7604.375
451.9  7049.375
451.8  6344.375
451.7  5743.75
451.6  5199.375
451.5  4680
451.4  4230.625
451.3  3823.125
451.2  3641.25
451.1  3333.125
451  3120
450.9  2945.625
450.8  2771.25
450.7  2685.625
450.6  2591.875
450.5  2604.375
450.4  2485
450.3  2467.5
450.2  2399.375
450.1  2383.125
450  2294.375
449.9  2261.875
449.8  2335.625
449.7  2296.875
449.6  2298.75
449.5  2343.125
449.4  2280.625
449.3  2418.75
449.2  2333.125
449.1  2369.375
449  2393.75
448.9  2437.5
448.8  2589.375
448.7  2551.25
448.6  2611.875
448.5  2696.875
448.4  2825.625
448.3  2836.875
448.2  2983.125
448.1  3184.375
448  3268.75
447.9  3455
447.8  3555
447.7  3856.25
447.6  4099.375
447.5  4338.75
447.4  4716.25
447.3  4940.625
447.2  5336.875
447.1  5701.875
447  6218.125
446.9  6713.125
446.8  7300
446.7  7659.375
446.6  8155.625
446.5  8870
446.4  9444.375
446.3  10135.625
446.2  10746.25
446.1  11296.25
446  11987.5
445.9  12556.875
445.8  12903.75
445.7  13565
445.6  13923.75
445.5  14313.125
445.4  14243.125
445.3  14628.125
445.2  14425.625
445.1  14169.375
445  13715
444.9  13379.375
444.8  12581.875
444.7  11852.5
444.6  11015.625
444.5  9991.875
444.4  9435
444.3  8451.875
444.2  7657.5
444.1  6746.25
444  6017.5
443.9  5437.5
443.8  4907.5
443.7  4398.125
443.6  4108.75
443.5  3677.5
443.4  3483.125
443.3  3251.25
443.2  3108.125
443.1  2975
443  2906.875
442.9  2792.5
442.8  2693.75
442.7  2574.375
442.6  2516.875
442.5  2449.375
442.4  2361.25
442.3  2285.625
442.2  2245
442.1  2153.125
442  2090
441.9  2048.125
441.8  2038.75
441.7  1993.75
441.6  1928.125
441.5  1884.375
441.4  1892.5
441.3  1831.875
441.2  1798.125
441.1  1854.375
441  1874.375
440.9  1778.125
440.8  1781.25
440.7  1779.375
440.6  1761.25
440.5  1681.25
440.4  1655
440.3  1616.25
440.2  1611.25
440.1  1528.75
440  1578.75
439.9  1485.625
439.8  1469.375
439.7  1486.25
439.6  1417.5
439.5  1431.25
439.4  1443.125
439.3  1398.75
439.2  1415.625
439.1  1376.25
439  1377.5
438.9  1318.125
438.8  1382.5
438.7  1335
438.6  1297.5
438.5  1372.5
438.4  1343.75
438.3  1316.25
438.2  1365
438.1  1366.25
438  1366.25
437.9  1347.5
437.8  1356.875
437.7  1363.75
437.6  1400.625
437.5  1411.25
437.4  1402.5
437.3  1441.25
437.2  1488.125
437.1  1510.625
437  1540

# Region:            Sn3d
# Acquisition Date:  09/23/22 09:54:16 UTC
# Analysis Method:   XPS
# Analyzer:          Phoibos 100 R6
# Analyzer Lens:     LargeArea:1.5kV
# Analyzer Slit:     1:0.2x20\B:open
# Scan Mode:         FixedAnalyzerTransmission
# Curves/Scan:       1
# Values/Curve:      231
# Dwell Time:        0.8
# Excitation Energy: 1486.61
# Binding Energy:    503
# Pass Energy:       30
# Bias Voltage:      90
# Detector Voltage:  2600
# Eff. Workfunction: 4.309
# Source:            X-Ray Dummy
# Comment:           
#
# Cycle: 0
# Number of Scans: 1
#
# Cycle: 0, Curve: 0
# Acquisition Date: 09/23/22 09:54:16 UTC
#
# ColumnLabels: energy counts/s
#
503  3171.25
502.9  3222.5
502.8  3103.75
502.7  3153.75
502.6  3191.25
502.5  3203.75
502.4  3150
502.3  3082.5
502.2  3253.75
502.1  3117.5
502  3170
501.9  3138.75
501.8  3161.25
501.7  2982.5
501.6  3005
501.5  3193.75
501.4  3031.25
501.3  3211.25
501.2  3062.5
501.1  3221.25
501  3203.75
500.9  3053.75
500.8  3153.75
500.7  3065
500.6  3128.75
500.5  3096.25
500.4  3088.75
500.3  3191.25
500.2  3171.25
500.1  3170
500  3143.75
499.9  3052.5
499.8  3051.25
499.7  3176.25
499.6  3186.25
499.5  3070
499.4  3006.25
499.3  3101.25
499.2  3093.75
499.1  3191.25
499  3053.75
498.9  3167.5
498.8  3192.5
498.7  3213.75
498.6  3158.75
498.5  3158.75
498.4  3182.5
498.3  3100
498.2  3118.75
498.1  3080
498  3263.75
497.9  3238.75
497.8  3313.75
497.7  3223.75
497.6  3255
497.5  3332.5
497.4  3300
497.3  3371.25
497.2  3351.25
497.1  3326.25
497  3402.5
496.9  3422.5
496.8  3385
496.7  3535
496.6  3522.5
496.5  3561.25
496.4  3422.5
496.3  3592.5
496.2  3568.75
496.1  3583.75
496  3568.75
495.9  3608.75
495.8  3545
495.7  3550
495.6  3727.5
495.5  3540
495.4  3721.25
495.3  3661.25
495.2  3542.5
495.1  3517.5
495  3523.75
494.9  3570
494.8  3343.75
494.7  3365
494.6  3377.5
494.5  3438.75
494.4  3286.25
494.3  3225
494.2  3145
494.1  3192.5
494  3156.25
493.9  3177.5
493.8  3127.5
493.7  3076.25
493.6  3147.5
493.5  3001.25
493.4  3010
493.3  3077.5
493.2  3165
493.1  2948.75
493  3002.5
492.9  3022.5
492.8  3142.5
492.7  3051.25
492.6  3053.75
492.5  3003.75
492.4  3012.5
492.3  2948.75
492.2  3057.5
492.1  3055
492  2977.5
491.9  3082.5
491.8  3068.75
491.7  2991.25
491.6  3116.25
491.5  3052.5
491.4  3168.75
491.3  2977.5
491.2  3113.75
491.1  2983.75
491  3045
490.9  2986.25
490.8  3038.75
490.7  3083.75
490.6  3117.5
490.5  3120
490.4  3048.75
490.3  3135
490.2  3181.25
490.1  3176.25
490  3190
489.9  3098.75
489.8  3150
489.7  3208.75
489.6  3156.25
489.5  3357.5
489.4  3237.5
489.3  3263.75
489.2  3270
489.1  3277.5
489  3420
488.9  3402.5
488.8  3445
488.7  3495
488.6  3655
488.5  3428.75
488.4  3600
488.3  3601.25
488.2  3590
488.1  3565
488  3552.5
487.9  3656.25
487.8  3708.75
487.7  3747.5
487.6  3857.5
487.5  3833.75
487.4  3947.5
487.3  3916.25
487.2  3747.5
487.1  4017.5
487  3892.5
486.9  3862.5
486.8  3743.75
486.7  3686.25
486.6  3810
486.5  3716.25
486.4  3571.25
486.3  3537.5
486.2  3616.25
486.1  3397.5
486  3376.25
485.9  3327.5
485.8  3335
485.7  3223.75
485.6  3157.5
485.5  3151.25
485.4  3260
485.3  3137.5
485.2  3067.5
485.1  3137.5
485  3048.75
484.9  3142.5
484.8  3226.25
484.7  3203.75
484.6  3093.75
484.5  3148.75
484.4  3047.5
484.3  3002.5
484.2  3113.75
484.1  3067.5
484  3078.75
483.9  3126.25
483.8  3083.75
483.7  2977.5
483.6  3053.75
483.5  3101.25
483.4  3142.5
483.3  3090
483.2  3087.5
483.1  2947.5
483  3510
482.9  3153.75
482.8  3026.25
482.7  3040
482.6  3118.75
482.5  3152.5
482.4  3187.5
482.3  2998.75
482.2  3117.5
482.1  3137.5
482  3175
481.9  3065
481.8  3083.75
481.7  3091.25
481.6  3035
481.5  3086.25
481.4  3023.75
481.3  3038.75
481.2  3075
481.1  3073.75
481  3137.5
480.9  3066.25
480.8  3101.25
480.7  3082.5
480.6  3215
480.5  3096.25
480.4  3035
480.3  3067.5
480.2  3075
480.1  3037.5
480  3235

# Region:            N1s
# Acquisition Date:  09/23/22 11:15:24 UTC
# Analysis Method:   XPS
# Analyzer:          Phoibos 100 R6
# Analyzer Lens:     LargeArea:1.5kV
# Analyzer Slit:     1:0.2x20\B:open
# Scan Mode:         FixedAnalyzerTransmission
# Curves/Scan:       1
# Values/Curve:      121
# Dwell Time:        0.8
# Excitation Energy: 1486.61
# Binding Energy:    409
# Pass Energy:       30
# Bias Voltage:      90
# Detector Voltage:  2600
# Eff. Workfunction: 4.309
# Source:            X-Ray Dummy
# Comment:           
#
# Cycle: 0
# Number of Scans: 16
#
# Cycle: 0, Curve: 0
# Acquisition Date: 09/23/22 11:15:24 UTC
#
# ColumnLabels: energy counts/s
#
409  955.9375
408.9  963.04688
408.8  961.17188
408.7  977.5
408.6  968.75
408.5  968.59375
408.4  971.5625
408.3  981.79688
408.2  977.8125
408.1  967.10938
408  961.17188
407.9  970.85938
407.8  974.6875
407.7  953.59375
407.6  957.57813
407.5  957.8125
407.4  973.28125
407.3  968.28125
407.2  983.75
407.1  979.6875
407  953.98438
406.9  967.65625
406.8  971.875
406.7  961.48438
406.6  960.85938
406.5  962.42188
406.4  986.09375
406.3  971.71875
406.2  961.5625
406.1  968.35938
406  973.28125
405.9  971.17188
405.8  969.53125
405.7  965.07813
405.6  962.8125
405.5  952.42188
405.4  975.07813
405.3  989.375
405.2  964.14063
405.1  968.4375
405  952.65625
404.9  992.03125
404.8  971.71875
404.7  974.29688
404.6  975.9375
404.5  975.23438
404.4  975.9375
404.3  967.42188
404.2  970.78125
404.1  959.53125
404  968.82813
403.9  965.70313
403.8  964.92188
403.7  978.82813
403.6  972.65625
403.5  977.26563
403.4  971.875
403.3  978.67188
403.2  967.26563
403.1  971.32813
403  988.20313
402.9  974.375
402.8  985.70313
402.7  972.65625
402.6  980.39063
402.5  981.48438
402.4  995.70313
402.3  985.625
402.2  1004.7656
402.1  1007.9688
402  982.65625
401.9  989.60938
401.8  995.9375
401.7  998.98438
401.6  993.20313
401.5  1005.4688
401.4  1003.5938
401.3  1007.5781
401.2  1001.6406
401.1  996.5625
401  1011.7188
400.9  1017.7344
400.8  1010.1563
400.7  1002.3438
400.6  1006.875
400.5  992.26563
400.4  996.71875
400.3  989.76563
400.2  996.01563
400.1  984.76563
400  1010.2344
399.9  986.40625
399.8  991.79688
399.7  992.10938
399.6  988.28125
399.5  986.09375
399.4  986.71875
399.3  989.6875
399.2  978.67188
399.1  970.15625
399  967.1875
398.9  962.96875
398.8  981.32813
398.7  969.45313
398.6  978.4375
398.5  958.35938
398.4  962.03125
398.3  977.10938
398.2  975.23438
398.1  936.32813
398  975
397.9  977.5
397.8  968.35938
397.7  952.26563
397.6  934.14063
397.5  964.375
397.4  950.70313
397.3  958.75
397.2  966.09375
397.1  937.1875
397  949.53125

# Region:            O1s
# Acquisition Date:  09/23/22 11:00:56 UTC
# Analysis Method:   XPS
# Analyzer:          Phoibos 100 R6
# Analyzer Lens:     LargeArea:1.5kV
# Analyzer Slit:     1:0.2x20\B:open
# Scan Mode:         FixedAnalyzerTransmission
# Curves/Scan:       1
# Values/Curve:      111
# Dwell Time:        0.8
# Excitation Energy: 1486.61
# Binding Energy:    538
# Pass Energy:       30
# Bias Voltage:      90
# Detector Voltage:  2600
# Eff. Workfunction: 4.309
# Source:            X-Ray Dummy
# Comment:           
#
# Cycle: 0
# Number of Scans: 8
#
# Cycle: 0, Curve: 0
# Acquisition Date: 09/23/22 11:00:56 UTC
#
# ColumnLabels: energy counts/s
#
538  3290.9375
537.9  3296.5625
537.8  3262.0313
537.7  3284.5313
537.6  3275.9375
537.5  3298.75
537.4  3286.7188
537.3  3270.625
537.2  3302.8125
537.1  3303.125
537  3320.4688
536.9  3266.5625
536.8  3282.6563
536.7  3321.25
536.6  3302.8125
536.5  3252.9688
536.4  3270.9375
536.3  3255.7813
536.2  3307.8125
536.1  3272.8125
536  3313.2813
535.9  3272.0313
535.8  3281.0938
535.7  3266.4063
535.6  3320
535.5  3265.1563
535.4  3284.8438
535.3  3352.6563
535.2  3317.8125
535.1  3333.2813
535  3355.3125
534.9  3352.3438
534.8  3378.4375
534.7  3402.9688
534.6  3428.5938
534.5  3443.5938
534.4  3495
534.3  3498.9063
534.2  3482.1875
534.1  3532.0313
534  3550.625
533.9  3613.2813
533.8  3662.0313
533.7  3689.5313
533.6  3759.6875
533.5  3813.9063
533.4  3781.875
533.3  3873.125
533.2  3942.0313
533.1  3971.4063
533  4055.9375
532.9  4111.7188
532.8  4248.5938
532.7  4328.125
532.6  4378.9063
532.5  4423.9063
532.4  4579.8438
532.3  4673.125
532.2  4712.6563
532.1  4903.125
532  5047.9688
531.9  5186.0938
531.8  5274.5313
531.7  5437.9688
531.6  5630.625
531.5  5690.625
531.4  5868.5938
531.3  5943.4375
531.2  6036.5625
531.1  6101.5625
531  6199.5313
530.9  6133.9063
530.8  6217.9688
530.7  6141.5625
530.6  6062.0313
530.5  5911.5625
530.4  5752.5
530.3  5624.0625
530.2  5415.7813
530.1  5118.2813
530  4958.125
529.9  4702.6563
529.8  4490.9375
529.7  4309.6875
529.6  4126.25
529.5  4012.6563
529.4  3795.9375
529.3  3704.8438
529.2  3640.1563
529.1  3512.8125
529  3451.5625
528.9  3408.5938
528.8  3370.7813
528.7  3368.9063
528.6  3263.2813
528.5  3234.6875
528.4  3224.6875
528.3  3212.8125
528.2  3193.9063
528.1  3256.0938
528  3205.3125
527.9  3212.5
527.8  3166.5625
527.7  3188.9063
527.6  3167.6563
527.5  3212.1875
527.4  3162.6563
527.3  3127.0313
527.2  3183.2813
527.1  3155.625
527  3166.5625

# Region:            Si2p
# Acquisition Date:  09/23/22 11:02:19 UTC
# Analysis Method:   XPS
# Analyzer:          Phoibos 100 R6
# Analyzer Lens:     LargeArea:1.5kV
# Analyzer Slit:     1:0.2x20\B:open
# Scan Mode:         FixedAnalyzerTransmission
# Curves/Scan:       1
# Values/Curve:      101
# Dwell Time:        0.8
# Excitation Energy: 1486.61
# Binding Energy:    110
# Pass Energy:       30
# Bias Voltage:      90
# Detector Voltage:  2600
# Eff. Workfunction: 4.309
# Source:            X-Ray Dummy
# Comment:           
#
# Cycle: 0
# Number of Scans: 8
#
# Cycle: 0, Curve: 0
# Acquisition Date: 09/23/22 11:02:19 UTC
#
# ColumnLabels: energy counts/s
#
110  890.15625
109.9  869.0625
109.8  880.46875
109.7  858.4375
109.6  880
109.5  863.59375
109.4  855.15625
109.3  868.28125
109.2  874.375
109.1  865.46875
109  867.34375
108.9  867.65625
108.8  877.96875
108.7  872.34375
108.6  855.9375
108.5  855.46875
108.4  871.40625
108.3  880.625
108.2  860.9375
108.1  889.53125
108  869.53125
107.9  874.375
107.8  858.59375
107.7  866.40625
107.6  877.5
107.5  864.0625
107.4  867.65625
107.3  861.40625
107.2  874.21875
107.1  858.75
107  873.90625
106.9  863.90625
106.8  876.40625
106.7  874.84375
106.6  873.4375
106.5  866.5625
106.4  874.21875
106.3  879.84375
106.2  887.5
106.1  863.28125
106  865.9375
105.9  860.46875
105.8  895
105.7  883.125
105.6  874.0625
105.5  907.34375
105.4  870.15625
105.3  908.125
105.2  903.4375
105.1  899.21875
105  885.9375
104.9  896.5625
104.8  899.0625
104.7  885
104.6  884.84375
104.5  883.75
104.4  896.71875
104.3  888.4375
104.2  882.1875
104.1  882.96875
104  898.59375
103.9  902.5
103.8  884.84375
103.7  890.46875
103.6  867.65625
103.5  933.59375
103.4  893.125
103.3  891.25
103.2  888.59375
103.1  865.3125
103  892.34375
102.9  872.34375
102.8  898.28125
102.7  873.4375
102.6  906.71875
102.5  904.0625
102.4  899.53125
102.3  887.65625
102.2  884.21875
102.1  879.6875
102  897.5
101.9  885.625
101.8  909.0625
101.7  875
101.6  868.125
101.5  888.4375
101.4  887.65625
101.3  903.4375
101.2  894.84375
101.1  860.15625
101  907.34375
100.9  898.125
100.8  883.90625
100.7  981.25
100.6  898.125
100.5  893.59375
100.4  925.9375
100.3  911.25
100.2  885.625
100.1  882.65625
100  898.75

# Region:            Ba3d
# Acquisition Date:  09/23/22 10:16:00 UTC
# Analysis Method:   XPS
# Analyzer:          Phoibos 100 R6
# Analyzer Lens:     LargeArea:1.5kV
# Analyzer Slit:     1:0.2x20\B:open
# Scan Mode:         FixedAnalyzerTransmission
# Curves/Scan:       1
# Values/Curve:      121
# Dwell Time:        0.8
# Excitation Energy: 1486.61
# Binding Energy:    789
# Pass Energy:       30
# Bias Voltage:      90
# Detector Voltage:  2600
# Eff. Workfunction: 4.309
# Source:            X-Ray Dummy
# Comment:           
#
# Cycle: 0
# Number of Scans: 2
#
# Cycle: 0, Curve: 0
# Acquisition Date: 09/23/22 10:16:00 UTC
#
# ColumnLabels: energy counts/s
#
789  4653.125
788.9  4675.625
788.8  4486.875
788.7  4661.25
788.6  4625
788.5  4653.75
788.4  4663.75
788.3  4558.125
788.2  4532.5
788.1  4575.625
788  4707.5
787.9  4637.5
787.8  4556.875
787.7  4618.125
787.6  4645.625
787.5  4544.375
787.4  4634.375
787.3  4684.375
787.2  4557.5
787.1  4520
787  4473.75
786.9  4516.875
786.8  4581.875
786.7  4585.625
786.6  4593.75
786.5  4716.25
786.4  4576.25
786.3  4497.5
786.2  4578.75
786.1  4491.875
786  4586.875
785.9  4618.125
785.8  4641.875
785.7  4675
785.6  5131.25
785.5  4568.125
785.4  4656.25
785.3  4659.375
785.2  4755.625
785.1  4582.5
785  4523.125
784.9  4553.125
784.8  4705
784.7  4611.875
784.6  4701.25
784.5  4585.625
784.4  4568.75
784.3  4631.875
784.2  4636.25
784.1  4566.25
784  4618.75
783.9  4551.25
783.8  4582.5
783.7  4610
783.6  4653.75
783.5  4551.875
783.4  4690
783.3  4585
783.2  4651.25
783.1  4528.125
783  4554.375
782.9  4558.125
782.8  4555.625
782.7  4618.75
782.6  4605.625
782.5  4529.375
782.4  4541.875
782.3  4587.5
782.2  4602.5
782.1  4681.25
782  4558.125
781.9  4691.25
781.8  4611.25
781.7  4601.25
781.6  4641.875
781.5  4648.75
781.4  4573.125
781.3  4527.5
781.2  4624.375
781.1  4614.375
781  4665
780.9  4608.75
780.8  4636.25
780.7  4689.375
780.6  4688.75
780.5  4593.125
780.4  4648.75
780.3  4591.25
780.2  4559.375
780.1  4466.25
780  4626.875
779.9  4641.875
779.8  4629.375
779.7  4622.5
779.6  4615
779.5  4535
779.4  4551.875
779.3  4596.875
779.2  4631.875
779.1  4621.25
779  4588.75
778.9  4605.625
778.8  4672.5
778.7  4721.875
778.6  4566.875
778.5  4606.875
778.4  4612.5
778.3  4686.875
778.2  4621.875
778.1  4628.75
778  4680
777.9  4631.875
777.8  4580.625
777.7  4522.5
777.6  4555.625
777.5  4573.75
777.4  4619.375
777.3  4586.25
777.2  4654.375
777.1  4611.875
777  4550

# Region:            Cl2p
# Acquisition Date:  09/23/22 10:17:31 UTC
# Analysis Method:   XPS
# Analyzer:          Phoibos 100 R6
# Analyzer Lens:     LargeArea:1.5kV
# Analyzer Slit:     1:0.2x20\B:open
# Scan Mode:         FixedAnalyzerTransmission
# Curves/Scan:       1
# Values/Curve:      111
# Dwell Time:        0.8
# Excitation Energy: 1486.61
# Binding Energy:    207
# Pass Energy:       30
# Bias Voltage:      90
# Detector Voltage:  2600
# Eff. Workfunction: 4.309
# Source:            X-Ray Dummy
# Comment:           
#
# Cycle: 0
# Number of Scans: 2
#
# Cycle: 0, Curve: 0
# Acquisition Date: 09/23/22 10:17:31 UTC
#
# ColumnLabels: energy counts/s
#
207  818.75
206.9  843.125
206.8  796.875
206.7  840.625
206.6  883.75
206.5  891.875
206.4  857.5
206.3  828.125
206.2  828.75
206.1  863.125
206  844.375
205.9  910
205.8  841.25
205.7  875.625
205.6  843.125
205.5  855.625
205.4  854.375
205.3  841.25
205.2  863.75
205.1  868.125
205  889.375
204.9  843.125
204.8  828.75
204.7  867.5
204.6  846.25
204.5  858.75
204.4  848.125
204.3  876.25
204.2  834.375
204.1  885.625
204  856.25
203.9  836.25
203.8  846.875
203.7  871.875
203.6  823.125
203.5  864.375
203.4  865
203.3  852.5
203.2  890.625
203.1  850.625
203  893.125
202.9  829.375
202.8  860.625
202.7  856.875
202.6  872.5
202.5  853.75
202.4  865.625
202.3  871.25
202.2  889.375
202.1  888.75
202  910
201.9  896.25
201.8  903.75
201.7  884.375
201.6  860
201.5  883.75
201.4  876.875
201.3  851.25
201.2  842.5
201.1  831.25
201  846.875
200.9  898.75
200.8  913.125
200.7  890.625
200.6  876.25
200.5  933.125
200.4  864.375
200.3  898.125
200.2  912.5
200.1  857.5
200  892.5
199.9  872.5
199.8  891.25
199.7  915.625
199.6  872.5
199.5  908.125
199.4  904.375
199.3  863.75
199.2  928.125
199.1  910.625
199  897.5
198.9  880
198.8  869.375
198.7  875
198.6  895.625
198.5  873.125
198.4  860.625
198.3  919.375
198.2  921.25
198.1  905.625
198  858.75
197.9  890
197.8  853.125
197.7  836.875
197.6  860
197.5  866.875
197.4  861.875
197.3  857.5
197.2  869.375
197.1  875.625
197  836.25
196.9  861.25
196.8  894.375
196.7  853.125
196.6  857.5
196.5  853.75
196.4  830
196.3  835
196.2  871.25
196.1  887.5
196  891.25

# Region:            Na1s
# Acquisition Date:  09/23/22 10:29:31 UTC
# Analysis Method:   XPS
# Analyzer:          Phoibos 100 R6
# Analyzer Lens:     LargeArea:1.5kV
# Analyzer Slit:     1:0.2x20\B:open
# Scan Mode:         FixedAnalyzerTransmission
# Curves/Scan:       1
# Values/Curve:      201
# Dwell Time:        0.8
# Excitation Energy: 1486.61
# Binding Energy:    1085
# Pass Energy:       30
# Bias Voltage:      90
# Detector Voltage:  2600
# Eff. Workfunction: 4.309
# Source:            X-Ray Dummy
# Comment:           
#
# Cycle: 0
# Number of Scans: 3
#
# Cycle: 0, Curve: 0
# Acquisition Date: 09/23/22 10:29:31 UTC
#
# ColumnLabels: energy counts/s
#
1085  10668.75
1084.9  10652.5
1084.8  10231.25
1084.7  10360.833
1084.6  10180.417
1084.5  10112.917
1084.4  10075.417
1084.3  9888.75
1084.2  9910.4167
1084.1  9910
1084  9775
1083.9  9636.6667
1083.8  9519.1667
1083.7  9493.3333
1083.6  9388.3333
1083.5  9300.4167
1083.4  9359.1667
1083.3  9214.5833
1083.2  9239.5833
1083.1  9082.9167
1083  9162.5
1082.9  9114.1667
1082.8  8999.1667
1082.7  9018.75
1082.6  8899.5833
1082.5  8937.9167
1082.4  8790
1082.3  8817.0833
1082.2  8729.5833
1082.1  8779.1667
1082  8901.6667
1081.9  8899.1667
1081.8  8985.4167
1081.7  8903.75
1081.6  8896.6667
1081.5  8867.9167
1081.4  8978.3333
1081.3  8864.5833
1081.2  8968.3333
1081.1  8923.3333
1081  8945.4167
1080.9  8986.25
1080.8  8945.8333
1080.7  9059.1667
1080.6  9075.4167
1080.5  9165.8333
1080.4  9136.6667
1080.3  9132.9167
1080.2  9180
1080.1  9148.75
1080  9079.1667
1079.9  9146.6667
1079.8  9137.5
1079.7  9091.25
1079.6  9032.5
1079.5  9080
1079.4  9113.75
1079.3  8998.3333
1079.2  8849.1667
1079.1  8950.4167
1079  8940.8333
1078.9  8884.5833
1078.8  8718.3333
1078.7  8738.3333
1078.6  8681.25
1078.5  8491.6667
1078.4  8413.3333
1078.3  8445.4167
1078.2  8191.6667
1078.1  8247.0833
1078  8096.25
1077.9  7970
1077.8  7885
1077.7  7960.8333
1077.6  7750.8333
1077.5  7654.1667
1077.4  7579.1667
1077.3  7576.25
1077.2  7466.6667
1077.1  7337.9167
1077  7362.9167
1076.9  7238.3333
1076.8  7158.3333
1076.7  7134.5833
1076.6  6955.4167
1076.5  6992.9167
1076.4  7108.75
1076.3  6947.5
1076.2  6822.5
1076.1  6797.5
1076  6777.5
1075.9  6727.5
1075.8  6752.9167
1075.7  6741.6667
1075.6  6608.3333
1075.5  6528.75
1075.4  6572.0833
1075.3  6495.8333
1075.2  6495.8333
1075.1  6436.6667
1075  6467.0833
1074.9  6432.5
1074.8  6344.5833
1074.7  6399.5833
1074.6  6414.5833
1074.5  6243.3333
1074.4  6355.8333
1074.3  6324.1667
1074.2  6249.1667
1074.1  6221.25
1074  6262.0833
1073.9  6200.4167
1073.8  6203.3333
1073.7  6160.8333
1073.6  6108.75
1073.5  6136.6667
1073.4  6247.9167
1073.3  6131.6667
1073.2  6152.0833
1073.1  6165.8333
1073  6167.5
1072.9  6105.4167
1072.8  6075.4167
1072.7  6174.5833
1072.6  6176.25
1072.5  6122.5
1072.4  6169.5833
1072.3  6124.5833
1072.2  6137.9167
1072.1  6089.1667
1072  6170.4167
1071.9  6035.8333
1071.8  6110.8333
1071.7  6154.1667
1071.6  6155.4167
1071.5  6154.1667
1071.4  6130
1071.3  5987.9167
1071.2  6185.8333
1071.1  6037.5
1071  6190
1070.9  6158.75
1070.8  6136.25
1070.7  6162.9167
1070.6  6178.3333
1070.5  6156.6667
1070.4  6075.8333
1070.3  6121.6667
1070.2  6197.9167
1070.1  6087.5
1070  6110.8333
1069.9  6089.5833
1069.8  6094.5833
1069.7  6211.6667
1069.6  6182.5
1069.5  6099.1667
1069.4  6087.0833
1069.3  6152.9167
1069.2  6165.8333
1069.1  6075.8333
1069  6064.1667
1068.9  6052.0833
1068.8  6146.6667
1068.7  6213.75
1068.6  6098.3333
1068.5  6148.75
1068.4  6193.75
1068.3  6126.6667
1068.2  6139.5833
1068.1  6118.75
1068  6205.8333
1067.9  6159.1667
1067.8  6173.75
1067.7  6161.25
1067.6  6219.1667
1067.5  6168.75
1067.4  6129.5833
1067.3  6086.25
1067.2  6268.3333
1067.1  6189.1667
1067  6237.5
1066.9  6155.8333
1066.8  6067.5
1066.7  6171.25
1066.6  6168.3333
1066.5  6105
1066.4  6203.3333
1066.3  6175
1066.2  6212.5
1066.1  6097.9167
1066  6217.0833
1065.9  6110.4167
1065.8  6166.25
1065.7  6135.4167
1065.6  6063.3333
1065.5  6184.5833
1065.4  6175
1065.3  6021.25
1065.2  6175.8333
1065.1  6100
1065  6141.6667

# Group:             overview_HD
#
