# Created by:        SpecsLab Prodigy, Version 4.60.2-r85849 
#
# XY-Serializer Export Settings:
#   Comment Prefix:           #
#   Output meta data:         yes
#   Energy Axis:              Binding Energy
#   Count Rate:               Counts per Second
#   Separate Scan Data:       no
#   Separate Channel Data:    no
#   External Channel Data:    yes
#   Transmission Function:    no
#   ErrorBar:                 no
#   Operation Results:        yes
#   Time Zone Format:         UTC
#
# Group:             xps
#
# Region:            Ba 3d
# Acquisition Date:  08/31/22 15:11:42 UTC
# Analysis Method:   XPS
# Analyzer:          Phoibos 100 R6
# Analyzer Lens:     LargeArea:1.5kV
# Analyzer Slit:     5:7x20\B:open
# Scan Mode:         FixedAnalyzerTransmission
# Curves/Scan:       1
# Values/Curve:      131
# Dwell Time:        0.8
# Excitation Energy: 1486.61
# Binding Energy:    786
# Pass Energy:       30
# Bias Voltage:      90
# Detector Voltage:  2600
# Eff. Workfunction: 4.309
# Source:            X-Ray Dummy
# Comment:           
#
# Cycle: 0
# Number of Scans: 2
#
# Cycle: 0, Curve: 0
# Acquisition Date: 08/31/22 15:11:42 UTC
#
# ColumnLabels: energy counts/s
#
786  6818.125
785.9  6978.75
785.8  6960
785.7  6841.25
785.6  6843.125
785.5  6851.875
785.4  6958.125
785.3  6792.5
785.2  6973.75
785.1  6891.25
785  6883.75
784.9  6836.875
784.8  6943.75
784.7  6984.375
784.6  6919.375
784.5  6843.75
784.4  6882.5
784.3  7088.75
784.2  7024.375
784.1  6930.625
784  6910.625
783.9  7073.125
783.8  7055.625
783.7  7036.875
783.6  7054.375
783.5  7041.875
783.4  7174.375
783.3  7043.75
783.2  7198.75
783.1  7186.25
783  7326.875
782.9  7380
782.8  7353.125
782.7  7600.625
782.6  7630.625
782.5  7639.375
782.4  7819.375
782.3  8035
782.2  8170
782.1  8477.5
782  8523.125
781.9  8688.75
781.8  8845.625
781.7  8973.125
781.6  9372.5
781.5  9342.5
781.4  9571.875
781.3  9786.25
781.2  9821.875
781.1  9935.625
781  10020
780.9  10078.125
780.8  9912.5
780.7  9801.25
780.6  9650.625
780.5  9489.375
780.4  9205
780.3  9112.5
780.2  8844.375
780.1  8684.375
780  8411.875
779.9  8313.125
779.8  8114.375
779.7  7807.5
779.6  7805
779.5  7543.75
779.4  7441.875
779.3  7233.75
779.2  7245.625
779.1  7209.375
779  7168.125
778.9  7127.5
778.8  6983.75
778.7  6900.625
778.6  6963.75
778.5  6773.125
778.4  6806.25
778.3  6932.5
778.2  6819.375
778.1  6794.375
778  6750
777.9  6720.625
777.8  6753.75
777.7  6851.25
777.6  6650.625
777.5  6806.25
777.4  6898.125
777.3  6725
777.2  6747.5
777.1  6716.875
777  6702.5
776.9  6791.875
776.8  6730
776.7  6758.75
776.6  6786.25
776.5  6668.75
776.4  6644.375
776.3  6715
776.2  6691.25
776.1  6710.625
776  6743.125
775.9  6681.875
775.8  6673.75
775.7  6720
775.6  6680.625
775.5  6686.25
775.4  6683.75
775.3  6945
775.2  6678.75
775.1  6671.25
775  6643.125
774.9  6761.25
774.8  6596.875
774.7  6765.625
774.6  6726.25
774.5  6780.625
774.4  6670.625
774.3  6751.875
774.2  6716.875
774.1  6645
774  6786.25
773.9  6753.75
773.8  6628.125
773.7  6888.75
773.6  6653.125
773.5  6728.75
773.4  6648.75
773.3  6717.5
773.2  6663.75
773.1  6780.625
773  6875

# Region:            C 1s
# Acquisition Date:  08/31/22 15:33:55 UTC
# Analysis Method:   XPS
# Analyzer:          Phoibos 100 R6
# Analyzer Lens:     LargeArea:1.5kV
# Analyzer Slit:     5:7x20\B:open
# Scan Mode:         FixedAnalyzerTransmission
# Curves/Scan:       1
# Values/Curve:      151
# Dwell Time:        0.8
# Excitation Energy: 1486.61
# Binding Energy:    295
# Pass Energy:       30
# Bias Voltage:      90
# Detector Voltage:  2600
# Eff. Workfunction: 4.309
# Source:            X-Ray Dummy
# Comment:           
#
# Cycle: 0
# Number of Scans: 5
#
# Cycle: 0, Curve: 0
# Acquisition Date: 08/31/22 15:33:55 UTC
#
# ColumnLabels: energy counts/s
#
295  826.75
294.9  829
294.8  812.75
294.7  786
294.6  817.25
294.5  786.75
294.4  837.25
294.3  826.75
294.2  809
294.1  803.5
294  820
293.9  843.75
293.8  817.5
293.7  834.25
293.6  815.25
293.5  811.75
293.4  823.5
293.3  812.5
293.2  824.25
293.1  832
293  828.5
292.9  811.25
292.8  811.5
292.7  825.5
292.6  848.5
292.5  813
292.4  814
292.3  835.75
292.2  834.25
292.1  844
292  810.25
291.9  845.25
291.8  812.25
291.7  838.75
291.6  815.75
291.5  828.5
291.4  840.5
291.3  828.75
291.2  847.5
291.1  846.25
291  842.5
290.9  835
290.8  824
290.7  813
290.6  839.5
290.5  831
290.4  843
290.3  836
290.2  919.75
290.1  817.25
290  855
289.9  830.75
289.8  832.5
289.7  845.75
289.6  855.75
289.5  876.25
289.4  833.75
289.3  834.25
289.2  840
289.1  826
289  843.75
288.9  881.25
288.8  893.5
288.7  887.75
288.6  852.75
288.5  873.75
288.4  873
288.3  902.75
288.2  870.25
288.1  910
288  883.75
287.9  885
287.8  900.25
287.7  902.75
287.6  901.25
287.5  930.5
287.4  930.5
287.3  936.25
287.2  950.25
287.1  970
287  946.5
286.9  946.25
286.8  957.5
286.7  997.75
286.6  989
286.5  1009.75
286.4  1014.25
286.3  1041.25
286.2  1064.75
286.1  1079.75
286  1077
285.9  1082.25
285.8  1103.75
285.7  1122
285.6  1146.5
285.5  1145.5
285.4  1173.25
285.3  1153.5
285.2  1172.25
285.1  1152.75
285  1161.25
284.9  1169
284.8  1108.25
284.7  1087.5
284.6  1107
284.5  1056.5
284.4  1034.5
284.3  1034.25
284.2  996.75
284.1  1003.5
284  964.75
283.9  966.5
283.8  958
283.7  928.25
283.6  879.75
283.5  887.5
283.4  871
283.3  850.75
283.2  844
283.1  865
283  845
282.9  839
282.8  804.5
282.7  824.75
282.6  835.5
282.5  797
282.4  839.75
282.3  844.25
282.2  834.25
282.1  810.5
282  808.5
281.9  792.25
281.8  776.5
281.7  807.75
281.6  798.25
281.5  812.75
281.4  794.75
281.3  801
281.2  790
281.1  820.25
281  781.25
280.9  799.75
280.8  795.5
280.7  802
280.6  806.25
280.5  793.5
280.4  791
280.3  815.75
280.2  832
280.1  789.25
280  783.5

# Region:            O 1s
# Acquisition Date:  08/31/22 16:31:20 UTC
# Analysis Method:   XPS
# Analyzer:          Phoibos 100 R6
# Analyzer Lens:     LargeArea:1.5kV
# Analyzer Slit:     5:7x20\B:open
# Scan Mode:         FixedAnalyzerTransmission
# Curves/Scan:       1
# Values/Curve:      171
# Dwell Time:        0.8
# Excitation Energy: 1486.61
# Binding Energy:    542
# Pass Energy:       30
# Bias Voltage:      90
# Detector Voltage:  2600
# Eff. Workfunction: 4.309
# Source:            X-Ray Dummy
# Comment:           
#
# Cycle: 0
# Number of Scans: 20
#
# Cycle: 0, Curve: 0
# Acquisition Date: 08/31/22 16:31:20 UTC
#
# ColumnLabels: energy counts/s
#
542  1075.125
541.9  1039
541.8  1034.75
541.7  1042.5
541.6  1031.25
541.5  1029.1875
541.4  1027.4375
541.3  1021.25
541.2  1042.25
541.1  1018.5625
541  1004.0625
540.9  1026.125
540.8  1013.125
540.7  1002.3125
540.6  1011.1875
540.5  1013.375
540.4  1015.875
540.3  1003.25
540.2  1008.3125
540.1  1003.625
540  995.625
539.9  994.5
539.8  978.625
539.7  991.8125
539.6  996.125
539.5  989.8125
539.4  990.5625
539.3  987.625
539.2  976.375
539.1  981.9375
539  981.4375
538.9  982.625
538.8  957.9375
538.7  964.625
538.6  963.125
538.5  958.125
538.4  965.0625
538.3  954.5
538.2  953.375
538.1  950.8125
538  937.3125
537.9  950.5
537.8  949.9375
537.7  957.0625
537.6  939.625
537.5  939.0625
537.4  943.5625
537.3  937.75
537.2  945
537.1  937.125
537  926.9375
536.9  932
536.8  928.625
536.7  946.9375
536.6  936.1875
536.5  942.6875
536.4  921.4375
536.3  932.3125
536.2  924.625
536.1  928.4375
536  922.9375
535.9  935.1875
535.8  916.9375
535.7  928.4375
535.6  915.5625
535.5  927.125
535.4  939.125
535.3  929
535.2  942.5
535.1  940.875
535  958.6875
534.9  950.0625
534.8  943.3125
534.7  955.8125
534.6  988.4375
534.5  960.125
534.4  973.5625
534.3  986.1875
534.2  966.125
534.1  990
534  987.5
533.9  1004.75
533.8  1010.875
533.7  1021.3125
533.6  983.75
533.5  1016.125
533.4  1025.25
533.3  1024.4375
533.2  1018.4375
533.1  1025.6875
533  1022.875
532.9  1036.125
532.8  1027.1875
532.7  1011.5625
532.6  1004.4375
532.5  1011.5625
532.4  999.875
532.3  1003.1875
532.2  998.125
532.1  984.1875
532  989.5
531.9  975.3125
531.8  980.375
531.7  962.5
531.6  959.375
531.5  968.9375
531.4  944.75
531.3  950.9375
531.2  950.3125
531.1  922.625
531  944.8125
530.9  928.125
530.8  914.4375
530.7  913.25
530.6  916.9375
530.5  907.4375
530.4  901.75
530.3  885.9375
530.2  905.25
530.1  896.1875
530  907.6875
529.9  893.625
529.8  887.0625
529.7  888.3125
529.6  894.625
529.5  869.5625
529.4  890.0625
529.3  892.6875
529.2  880
529.1  885.25
529  885.8125
528.9  886.4375
528.8  868.875
528.7  870.4375
528.6  884.9375
528.5  878.1875
528.4  880.4375
528.3  882.625
528.2  889.125
528.1  887.6875
528  879
527.9  879.375
527.8  870.625
527.7  876.75
527.6  866.625
527.5  880.25
527.4  862.75
527.3  865.3125
527.2  878.6875
527.1  872.8125
527  858.5625
526.9  869.5625
526.8  860.4375
526.7  873.8125
526.6  866.25
526.5  869.1875
526.4  873.9375
526.3  868.4375
526.2  873.25
526.1  857.25
526  857.0625
525.9  862.25
525.8  871.0625
525.7  874.5
525.6  856.375
525.5  878
525.4  850.25
525.3  864.3125
525.2  866.75
525.1  863.1875
525  865.125

# Operation:         Peak Fit
# Range Start:       542
# Range End:         526.479
# Parameter: "Transition" = 
# Parameter: "Label" = 
# Parameter: "Background Method" = Tougaard
# Parameter: "Peak Shape" = Voigt
# Parameter: "Asymmetric Peak" = false
# Parameter: "FWHM-Annotation" = S-B = <Signal-BG:@>\nFWHM = <FWHM:@>\nArea = <Area:@>
# Parameter: "Peak-Annotation" = <Label>\n<Transition>\nE = <Center:@>
#
# Result:
# Number of Results: 2
# Parameter: "Transition" = 
# Parameter: "Label" = 
# Parameter: "Center" = 532.88670617512935 eV +- 0.024209316046380991
# Parameter: "Area" = 472.93621104297904 cps eV +- 10.141181702778113
# Parameter: "FWHM Lorentzian" = 0 eV +- 0
# Parameter: "FWHM Gaussian" = 3.2240138485687773 eV +- 0.062165897719457228
# Parameter: "Asymmetry" = 0 +- 0
# Parameter: "Tougaard B" = 79162.949489161838 eV^2 +- 1167.099909519244
# Parameter: "Tougaard C" = 1643 eV^2 +- 0
# Parameter: "FWHM" = 3.2240138485687773 eV
# Parameter: "Offset (0th order)" = 874.80783865042906 cps +- 1.3125831660355516
# Parameter: "Abbe factor" = 0.95553036634785526
# Parameter: "Reduced Chi Square" = 1.3629919651251634
# Parameter: "Q Probability" = 0.0021455010034313248
# Parameter: "Number of performed iterations" = 11
# Parameter: "Fit termination reason" = ConvergedInParameter
# Parameter: "Signal" = 1020.2863546823762 cps
# Parameter: "Signal-BG" = 137.80769189250654 cps
#
# Result Name:       Background
# Number of Curves:  1
#
# Curve:             0
# Values/Curve:      98
#
542  1047.6343
541.84021  1042.9585
541.68041  1038.3808
541.52062  1033.8982
541.36082  1029.5082
541.20103  1025.2082
541.04124  1020.9955
540.88144  1016.8677
540.72165  1012.8223
540.56186  1008.8568
540.40206  1004.969
540.24227  1001.1564
540.08247  997.41692
539.92268  993.74823
539.76289  990.14818
539.60309  986.61464
539.4433  983.14552
539.28351  979.73877
539.12371  976.39238
538.96392  973.10439
538.80412  969.87285
538.64433  966.69588
538.48454  963.57161
538.32474  960.49823
538.16495  957.47395
538.00515  954.49703
537.84536  951.56576
537.68557  948.67848
537.52577  945.8336
537.36598  943.02957
537.20619  940.26491
537.04639  937.53827
536.8866  934.84835
536.7268  932.19404
536.56701  929.57439
536.40722  926.98864
536.24742  924.4363
536.08763  921.91721
535.92784  919.43156
535.76804  916.97996
535.60825  914.56353
535.44845  912.18393
535.28866  909.84341
535.12887  907.54486
534.96907  905.29183
534.80928  903.08849
534.64948  900.93964
534.48969  898.85059
534.3299  896.82712
534.1701  894.87529
534.01031  893.00129
533.85052  891.21124
533.69072  889.51099
533.53093  887.90587
533.37113  886.40052
533.21134  884.99862
533.05155  883.7028
532.89175  882.51444
532.73196  881.4336
532.57216  880.45903
532.41237  879.58814
532.25258  878.81713
532.09278  878.14106
531.93299  877.55409
531.7732  877.04962
531.6134  876.62054
531.45361  876.25944
531.29381  875.95883
531.13402  875.7113
530.97423  875.50976
530.81443  875.34751
530.65464  875.21839
530.49485  875.11681
530.33505  875.03784
530.17526  874.97717
530.01546  874.93112
529.85567  874.89658
529.69588  874.87099
529.53608  874.85226
529.37629  874.83872
529.21649  874.82905
529.0567  874.82224
528.89691  874.81749
528.73711  874.81423
528.57732  874.81202
528.41753  874.81053
528.25773  874.80955
528.09794  874.80891
527.93814  874.8085
527.77835  874.80824
527.61856  874.80807
527.45876  874.80797
527.29897  874.80791
527.13918  874.80788
526.97938  874.80786
526.81959  874.80785
526.65979  874.80784
526.5  874.80784

# Result Name:       Peak Fit
# Number of Curves:  1
#
# Curve:             0
# Values/Curve:      98
#
542  1047.6343
541.84021  1042.9585
541.68041  1038.3808
541.52062  1033.8982
541.36082  1029.5082
541.20103  1025.2082
541.04124  1020.9955
540.88144  1016.8677
540.72165  1012.8223
540.56186  1008.8568
540.40206  1004.969
540.24227  1001.1565
540.08247  997.41706
539.92268  993.74848
539.76289  990.14864
539.60309  986.61546
539.4433  983.14696
539.28351  979.74127
539.12371  976.39668
538.96392  973.11164
538.80412  969.88495
538.64433  966.71579
538.48454  963.60391
538.32474  960.54993
538.16495  957.55558
538.00515  954.62418
537.84536  951.76112
537.68557  948.97461
537.52577  946.27638
537.36598  943.68267
537.20619  941.2152
537.04639  938.90227
536.8866  936.77969
536.7268  934.89171
536.56701  933.29145
536.40722  932.04101
536.24742  931.21078
536.08763  930.87788
535.92784  931.12355
535.76804  932.02941
535.60825  933.67248
535.44845  936.11913
535.28866  939.41819
535.12887  943.59359
534.96907  948.63716
534.80928  954.50218
534.64948  961.09845
534.48969  968.28964
534.3299  975.89358
534.1701  983.6859
534.01031  991.40726
533.85052  998.77404
533.69072  1005.492
533.53093  1011.2719
533.37113  1015.8464
533.21134  1018.9863
533.05155  1020.5153
532.89175  1020.3212
532.73196  1018.3638
532.57216  1014.6775
532.41237  1009.3686
532.25258  1002.6084
532.09278  994.62205
531.93299  985.67359
531.7732  976.05005
531.6134  966.04455
531.45361  955.94053
531.29381  945.9979
531.13402  936.44218
530.97423  927.45703
530.81443  919.18038
530.65464  911.70396
530.49485  905.07575
530.33505  899.30482
530.17526  894.36768
530.01546  890.21545
529.85567  886.78127
529.69588  883.98718
529.53608  881.75025
529.37629  879.98764
529.21649  878.6204
529.0567  877.57618
528.89691  876.79083
528.73711  876.20909
528.57732  875.78464
528.41753  875.47956
528.25773  875.26352
528.09794  875.11278
527.93814  875.00915
527.77835  874.93894
527.61856  874.89206
527.45876  874.86121
527.29897  874.8412
527.13918  874.82841
526.97938  874.82035
526.81959  874.81535
526.65979  874.81228
526.5  874.81043

# Region:            N 1s
# Acquisition Date:  08/31/22 16:32:42 UTC
# Analysis Method:   XPS
# Analyzer:          Phoibos 100 R6
# Analyzer Lens:     LargeArea:1.5kV
# Analyzer Slit:     5:7x20\B:open
# Scan Mode:         FixedAnalyzerTransmission
# Curves/Scan:       1
# Values/Curve:      101
# Dwell Time:        0.8
# Excitation Energy: 1486.61
# Binding Energy:    405
# Pass Energy:       30
# Bias Voltage:      90
# Detector Voltage:  2600
# Eff. Workfunction: 4.309
# Source:            X-Ray Dummy
# Comment:           
#
# Cycle: 0
# Number of Scans: 20
#
# Cycle: 0, Curve: 0
# Acquisition Date: 08/31/22 16:32:42 UTC
#
# ColumnLabels: energy counts/s
#
405  819.375
404.9  830.8125
404.8  836.5625
404.7  820.875
404.6  859.5
404.5  830.125
404.4  830.875
404.3  824.3125
404.2  834.4375
404.1  824.4375
404  835.125
403.9  823.5625
403.8  826.8125
403.7  832.625
403.6  833.625
403.5  825.0625
403.4  829.8125
403.3  819.6875
403.2  824.1875
403.1  813.25
403  826.4375
402.9  816.5625
402.8  826.125
402.7  816.9375
402.6  821.8125
402.5  836.75
402.4  813.875
402.3  804.875
402.2  826.5625
402.1  824.0625
402  827.4375
401.9  826.375
401.8  824.25
401.7  822.4375
401.6  827.75
401.5  839.5
401.4  839.625
401.3  826.8125
401.2  828.3125
401.1  837.75
401  845.3125
400.9  835.9375
400.8  842.5625
400.7  840.625
400.6  835.75
400.5  838.1875
400.4  829.875
400.3  837.625
400.2  831.8125
400.1  842.5
400  829.875
399.9  835.625
399.8  821.375
399.7  823.9375
399.6  833.4375
399.5  824.3125
399.4  826.9375
399.3  816.5
399.2  821.8125
399.1  820.3125
399  803.0625
398.9  807.4375
398.8  824.5
398.7  821.375
398.6  816.3125
398.5  813.5625
398.4  810.125
398.3  823.5
398.2  802.6875
398.1  796.875
398  810
397.9  807.3125
397.8  793.625
397.7  808.625
397.6  799.4375
397.5  802.5
397.4  804.25
397.3  805.9375
397.2  799.6875
397.1  783.375
397  802.75
396.9  805.625
396.8  799.5625
396.7  792.375
396.6  799.1875
396.5  789.4375
396.4  801.9375
396.3  796
396.2  797.5
396.1  802.1875
396  798.3125
395.9  787.5625
395.8  796.75
395.7  795.375
395.6  806.3125
395.5  805.875
395.4  785.6875
395.3  799.75
395.2  783.6875
395.1  794.625
395  802.25

# Region:            Si 2p
# Acquisition Date:  08/31/22 15:18:56 UTC
# Analysis Method:   XPS
# Analyzer:          Phoibos 100 R6
# Analyzer Lens:     LargeArea:1.5kV
# Analyzer Slit:     5:7x20\B:open
# Scan Mode:         FixedAnalyzerTransmission
# Curves/Scan:       1
# Values/Curve:      111
# Dwell Time:        0.8
# Excitation Energy: 1486.61
# Binding Energy:    112
# Pass Energy:       30
# Bias Voltage:      90
# Detector Voltage:  2600
# Eff. Workfunction: 4.309
# Source:            X-Ray Dummy
# Comment:           
#
# Cycle: 0
# Number of Scans: 2
#
# Cycle: 0, Curve: 0
# Acquisition Date: 08/31/22 15:18:56 UTC
#
# ColumnLabels: energy counts/s
#
112  923.125
111.9  928.125
111.8  916.25
111.7  945.625
111.6  946.25
111.5  947.5
111.4  945.625
111.3  946.875
111.2  939.375
111.1  881.25
111  914.375
110.9  956.25
110.8  946.875
110.7  943.75
110.6  925
110.5  912.5
110.4  907.5
110.3  915.625
110.2  910.625
110.1  894.375
110  889.375
109.9  953.125
109.8  923.125
109.7  925.625
109.6  931.875
109.5  921.25
109.4  895.625
109.3  903.75
109.2  913.125
109.1  906.875
109  912.5
108.9  890
108.8  893.75
108.7  872.5
108.6  843.75
108.5  900.625
108.4  904.375
108.3  891.25
108.2  874.375
108.1  901.25
108  893.75
107.9  922.5
107.8  926.875
107.7  884.375
107.6  926.875
107.5  892.5
107.4  951.25
107.3  937.5
107.2  901.25
107.1  906.875
107  921.875
106.9  896.25
106.8  921.25
106.7  944.375
106.6  901.875
106.5  863.125
106.4  972.5
106.3  928.75
106.2  946.25
106.1  933.75
106  910.625
105.9  935
105.8  912.5
105.7  900.625
105.6  965.625
105.5  901.875
105.4  932.5
105.3  942.5
105.2  888.75
105.1  895
105  939.375
104.9  913.75
104.8  921.875
104.7  932.5
104.6  920.625
104.5  911.875
104.4  886.875
104.3  942.5
104.2  906.875
104.1  937.5
104  934.375
103.9  971.875
103.8  945
103.7  975.625
103.6  934.375
103.5  943.75
103.4  928.125
103.3  969.375
103.2  1003.75
103.1  1010.625
103  959.375
102.9  912.5
102.8  982.5
102.7  953.125
102.6  978.125
102.5  978.75
102.4  1011.25
102.3  978.125
102.2  971.25
102.1  960
102  1024.375
101.9  955
101.8  999.375
101.7  943.125
101.6  964.375
101.5  973.125
101.4  992.5
101.3  935.625
101.2  970
101.1  992.5
101  972.5

# Region:            Cu 2p
# Acquisition Date:  08/31/22 15:08:26 UTC
# Analysis Method:   XPS
# Analyzer:          Phoibos 100 R6
# Analyzer Lens:     LargeArea:1.5kV
# Analyzer Slit:     5:7x20\B:open
# Scan Mode:         FixedAnalyzerTransmission
# Curves/Scan:       1
# Values/Curve:      341
# Dwell Time:        0.8
# Excitation Energy: 1486.61
# Binding Energy:    960
# Pass Energy:       30
# Bias Voltage:      90
# Detector Voltage:  2600
# Eff. Workfunction: 4.309
# Source:            X-Ray Dummy
# Comment:           
#
# Cycle: 0
# Number of Scans: 1
#
# Cycle: 0, Curve: 0
# Acquisition Date: 08/31/22 15:08:26 UTC
#
# ColumnLabels: energy counts/s
#
960  11773.75
959.9  11955
959.8  11762.5
959.7  11885
959.6  12097.5
959.5  12057.5
959.4  11941.25
959.3  12097.5
959.2  12037.5
959.1  11915
959  12077.5
958.9  12253.75
958.8  12082.5
958.7  11937.5
958.6  12205
958.5  12162.5
958.4  12035
958.3  12445
958.2  12271.25
958.1  12105
958  12273.75
957.9  12170
957.8  12145
957.7  12085
957.6  12240
957.5  12261.25
957.4  12168.75
957.3  12221.25
957.2  12401.25
957.1  12527.5
957  12586.25
956.9  12423.75
956.8  12432.5
956.7  12343.75
956.6  12380
956.5  12517.5
956.4  12511.25
956.3  12636.25
956.2  12807.5
956.1  12708.75
956  12805
955.9  12702.5
955.8  12903.75
955.7  12945
955.6  12882.5
955.5  13223.75
955.4  12966.25
955.3  13197.5
955.2  13257.5
955.1  13372.5
955  13260
954.9  13517.5
954.8  13597.5
954.7  14012.5
954.6  13875
954.5  14201.25
954.4  14528.75
954.3  14380
954.2  15147.5
954.1  15140
954  15818.75
953.9  16096.25
953.8  16288.75
953.7  16841.25
953.6  17256.25
953.5  17416.25
953.4  17722.5
953.3  18418.75
953.2  18926.25
953.1  18956.25
953  19280
952.9  19325
952.8  19413.75
952.7  19425
952.6  19291.25
952.5  19366.25
952.4  19307.5
952.3  18572.5
952.2  18287.5
952.1  17822.5
952  17260
951.9  17018.75
951.8  16408.75
951.7  15791.25
951.6  15501.25
951.5  14857.5
951.4  14543.75
951.3  14203.75
951.2  13678.75
951.1  13483.75
951  13053.75
950.9  12927.5
950.8  12523.75
950.7  12622.5
950.6  12535
950.5  12456.25
950.4  12020
950.3  12211.25
950.2  11795
950.1  11733.75
950  11706.25
949.9  11560
949.8  11716.25
949.7  11515
949.6  11445
949.5  11466.25
949.4  11295
949.3  11145
949.2  11315
949.1  11175
949  11295
948.9  11171.25
948.8  11035
948.7  11041.25
948.6  11056.25
948.5  11018.75
948.4  11082.5
948.3  10768.75
948.2  11003.75
948.1  11028.75
948  10733.75
947.9  10918.75
947.8  10827.5
947.7  11046.25
947.6  11096.25
947.5  10926.25
947.4  10746.25
947.3  10816.25
947.2  10677.5
947.1  10955
947  10695
946.9  10741.25
946.8  10823.75
946.7  10617.5
946.6  10837.5
946.5  10885
946.4  10771.25
946.3  10825
946.2  10518.75
946.1  10415
946  10961.25
945.9  10543.75
945.8  10577.5
945.7  10572.5
945.6  10435
945.5  10472.5
945.4  10307.5
945.3  10361.25
945.2  10271.25
945.1  10350
945  10616.25
944.9  10323.75
944.8  10345
944.7  10233.75
944.6  10283.75
944.5  10375
944.4  10371.25
944.3  10210
944.2  10480
944.1  10311.25
944  10412.5
943.9  10460
943.8  10361.25
943.7  10426.25
943.6  10561.25
943.5  10306.25
943.4  10525
943.3  10222.5
943.2  10426.25
943.1  10418.75
943  10468.75
942.9  10208.75
942.8  10143.75
942.7  10243.75
942.6  10198.75
942.5  10093.75
942.4  10178.75
942.3  9890
942.2  9862.5
942.1  9831.25
942  9883.75
941.9  9853.75
941.8  9525
941.7  9612.5
941.6  9570
941.5  9715
941.4  9471.25
941.3  9545
941.2  9413.75
941.1  9335
941  9356.25
940.9  9443.75
940.8  9267.5
940.7  9285
940.6  9260
940.5  9340
940.4  9377.5
940.3  9337.5
940.2  9133.75
940.1  9073.75
940  9085
939.9  9202.5
939.8  9086.25
939.7  9088.75
939.6  9091.25
939.5  8927.5
939.4  9176.25
939.3  9045
939.2  9232.5
939.1  8926.25
939  9080
938.9  9285
938.8  9110
938.7  9097.5
938.6  8908.75
938.5  9182.5
938.4  8926.25
938.3  8930
938.2  9133.75
938.1  9136.25
938  9311.25
937.9  9390
937.8  9217.5
937.7  9141.25
937.6  9308.75
937.5  9153.75
937.4  9355
937.3  9410
937.2  9448.75
937.1  9451.25
937  9503.75
936.9  9561.25
936.8  9557.5
936.7  9495
936.6  9608.75
936.5  9610
936.4  9647.5
936.3  9948.75
936.2  9995
936.1  9758.75
936  9837.5
935.9  10125
935.8  10173.75
935.7  10261.25
935.6  10180
935.5  10267.5
935.4  10553.75
935.3  10566.25
935.2  10852.5
935.1  10890
935  11208.75
934.9  11338.75
934.8  11608.75
934.7  12101.25
934.6  12477.5
934.5  12936.25
934.4  13795
934.3  14537.5
934.2  15250
934.1  16236.25
934  17258.75
933.9  18270
933.8  19485
933.7  21105
933.6  22087.5
933.5  23836.25
933.4  25093.75
933.3  26475
933.2  27215
933.1  28667.5
933  28917.5
932.9  29050
932.8  29135
932.7  28832.5
932.6  27712.5
932.5  27050
932.4  25686.25
932.3  23857.5
932.2  22236.25
932.1  20778.75
932  19171.25
931.9  17748.75
931.8  16380
931.7  14903.75
931.6  13478.75
931.5  12822.5
931.4  11946.25
931.3  11358.75
931.2  10646.25
931.1  10197.5
931  9701.25
930.9  9540
930.8  9273.75
930.7  8982.5
930.6  8865
930.5  8547.5
930.4  8486.25
930.3  8418.75
930.2  8263.75
930.1  8250
930  8137.5
929.9  7866.25
929.8  7840
929.7  7802.5
929.6  7930
929.5  7776.25
929.4  7701.25
929.3  7570
929.2  7506.25
929.1  7488.75
929  7642.5
928.9  7502.5
928.8  7458.75
928.7  7423.75
928.6  7491.25
928.5  7538.75
928.4  7378.75
928.3  7282.5
928.2  7368.75
928.1  7218.75
928  7352.5
927.9  7255
927.8  7293.75
927.7  7227.5
927.6  7306.25
927.5  7351.25
927.4  7506.25
927.3  7450
927.2  7362.5
927.1  7365
927  7181.25
926.9  7181.25
926.8  7341.25
926.7  7192.5
926.6  7193.75
926.5  7293.75
926.4  7352.5
926.3  7201.25
926.2  7172.5
926.1  7340
926  7258.75

# Region:            Cl 2p
# Acquisition Date:  08/31/22 15:20:26 UTC
# Analysis Method:   XPS
# Analyzer:          Phoibos 100 R6
# Analyzer Lens:     LargeArea:1.5kV
# Analyzer Slit:     5:7x20\B:open
# Scan Mode:         FixedAnalyzerTransmission
# Curves/Scan:       1
# Values/Curve:      111
# Dwell Time:        0.8
# Excitation Energy: 1486.61
# Binding Energy:    207
# Pass Energy:       30
# Bias Voltage:      90
# Detector Voltage:  2600
# Eff. Workfunction: 4.309
# Source:            X-Ray Dummy
# Comment:           
#
# Cycle: 0
# Number of Scans: 2
#
# Cycle: 0, Curve: 0
# Acquisition Date: 08/31/22 15:20:26 UTC
#
# ColumnLabels: energy counts/s
#
207  821.25
206.9  801.875
206.8  821.875
206.7  844.375
206.6  836.25
206.5  852.5
206.4  796.25
206.3  843.125
206.2  802.5
206.1  826.25
206  786.25
205.9  838.75
205.8  794.375
205.7  870.625
205.6  843.125
205.5  814.375
205.4  842.5
205.3  843.125
205.2  850.625
205.1  813.75
205  806.25
204.9  826.875
204.8  833.125
204.7  838.125
204.6  815
204.5  830.625
204.4  845.625
204.3  826.875
204.2  843.75
204.1  824.375
204  850
203.9  801.875
203.8  832.5
203.7  818.75
203.6  825.625
203.5  881.25
203.4  807.5
203.3  874.375
203.2  838.75
203.1  820.625
203  845.625
202.9  840
202.8  860
202.7  850
202.6  861.25
202.5  861.875
202.4  848.125
202.3  855.625
202.2  849.375
202.1  886.25
202  894.375
201.9  873.75
201.8  822.5
201.7  865
201.6  905.625
201.5  860
201.4  905.625
201.3  900
201.2  941.875
201.1  925
201  927.5
200.9  951.875
200.8  956.875
200.7  963.125
200.6  976.875
200.5  1005.625
200.4  1029.375
200.3  1007.5
200.2  1005.625
200.1  1043.75
200  987.5
199.9  1015
199.8  1088.75
199.7  1047.5
199.6  1058.125
199.5  1092.5
199.4  1041.25
199.3  1067.5
199.2  1110
199.1  1106.875
199  1108.125
198.9  1145.625
198.8  1101.875
198.7  1126.25
198.6  1069.375
198.5  1050
198.4  1103.125
198.3  1040.625
198.2  1055
198.1  986.25
198  988.125
197.9  985.625
197.8  904.375
197.7  901.875
197.6  956.875
197.5  873.125
197.4  888.125
197.3  821.875
197.2  888.125
197.1  823.75
197  858.125
196.9  848.125
196.8  841.875
196.7  786.875
196.6  847.5
196.5  794.375
196.4  800
196.3  810.625
196.2  831.875
196.1  846.875
196  820

