# Created by:        SpecsLab Prodigy, Version 4.60.2-r85849 
#
# XY-Serializer Export Settings:
#   Comment Prefix:           #
#   Output meta data:         yes
#   Energy Axis:              Binding Energy
#   Count Rate:               Counts per Second
#   Separate Scan Data:       no
#   Separate Channel Data:    no
#   External Channel Data:    yes
#   Transmission Function:    no
#   ErrorBar:                 no
#   Operation Results:        yes
#   Time Zone Format:         UTC
#
# Group:             xps
#
# Region:            C 1s
# Acquisition Date:  08/30/22 00:41:41 UTC
# Analysis Method:   XPS
# Analyzer:          Phoibos 100 R6
# Analyzer Lens:     LargeArea:1.5kV
# Analyzer Slit:     5:7x20\B:open
# Scan Mode:         FixedAnalyzerTransmission
# Curves/Scan:       1
# Values/Curve:      151
# Dwell Time:        0.8
# Excitation Energy: 1486.61
# Binding Energy:    295
# Pass Energy:       30
# Bias Voltage:      90
# Detector Voltage:  2600
# Eff. Workfunction: 4.309
# Source:            X-Ray Dummy
# Comment:           
#
# Cycle: 0
# Number of Scans: 50
#
# Cycle: 0, Curve: 0
# Acquisition Date: 08/30/22 00:41:41 UTC
#
# ColumnLabels: energy counts/s
#
295  896.1
294.9  903.3
294.8  898.55
294.7  904.35
294.6  910.1
294.5  893.975
294.4  900.5
294.3  911.8
294.2  904.9
294.1  908.875
294  903.825
293.9  898.65
293.8  902.65
293.7  901.2
293.6  908.25
293.5  905.325
293.4  906.5
293.3  893.5
293.2  898.35
293.1  910.675
293  908.175
292.9  901.025
292.8  909.675
292.7  908.425
292.6  907.725
292.5  900.5
292.4  910.95
292.3  896.625
292.2  906.825
292.1  908.65
292  906.25
291.9  909.125
291.8  908.225
291.7  917.3
291.6  903.35
291.5  920.45
291.4  905.675
291.3  911.3
291.2  913.4
291.1  918.425
291  905.2
290.9  911.7
290.8  906.55
290.7  916.75
290.6  907.15
290.5  913.7
290.4  912.375
290.3  913.525
290.2  914.1
290.1  917.25
290  922.375
289.9  903.375
289.8  912.275
289.7  910.6
289.6  910.175
289.5  907.675
289.4  914.2
289.3  919.075
289.2  908.95
289.1  914.075
289  915.45
288.9  924.625
288.8  914.55
288.7  918.45
288.6  912.4
288.5  917.675
288.4  919.5
288.3  921.975
288.2  914.65
288.1  928.9
288  913.2
287.9  913.55
287.8  922.475
287.7  920.1
287.6  920.375
287.5  930.3
287.4  931.225
287.3  922.625
287.2  926.85
287.1  923.475
287  937.975
286.9  928.45
286.8  935.075
286.7  930.525
286.6  943.75
286.5  940.925
286.4  949.775
286.3  953.35
286.2  955.45
286.1  959.975
286  966.4
285.9  977.45
285.8  973.5
285.7  983.725
285.6  1001.625
285.5  1005.55
285.4  1008.95
285.3  1014.425
285.2  1028.425
285.1  1034.55
285  1040.975
284.9  1046.15
284.8  1048.75
284.7  1056.725
284.6  1057.175
284.5  1059.775
284.4  1060.4
284.3  1049.2
284.2  1042.75
284.1  1031.8
284  1030.825
283.9  1014.9
283.8  1008.275
283.7  987.95
283.6  978.075
283.5  961.275
283.4  943.125
283.3  952.1
283.2  940.825
283.1  927.525
283  923.725
282.9  912.25
282.8  909.825
282.7  899.325
282.6  896.275
282.5  902.95
282.4  894.875
282.3  893.675
282.2  890.3
282.1  890.025
282  891.45
281.9  892.65
281.8  888.95
281.7  884.95
281.6  898
281.5  881.675
281.4  889.75
281.3  884.8
281.2  889.85
281.1  883.775
281  892.475
280.9  890.825
280.8  888.25
280.7  892.85
280.6  883.95
280.5  881.45
280.4  885.3
280.3  890.025
280.2  886.8
280.1  882.1
280  892.925

# Region:            O 1s
# Acquisition Date:  08/30/22 00:44:00 UTC
# Analysis Method:   XPS
# Analyzer:          Phoibos 100 R6
# Analyzer Lens:     LargeArea:1.5kV
# Analyzer Slit:     5:7x20\B:open
# Scan Mode:         FixedAnalyzerTransmission
# Curves/Scan:       1
# Values/Curve:      171
# Dwell Time:        0.8
# Excitation Energy: 1486.61
# Binding Energy:    542
# Pass Energy:       30
# Bias Voltage:      90
# Detector Voltage:  2600
# Eff. Workfunction: 4.309
# Source:            X-Ray Dummy
# Comment:           
#
# Cycle: 0
# Number of Scans: 50
#
# Cycle: 0, Curve: 0
# Acquisition Date: 08/30/22 00:44:00 UTC
#
# ColumnLabels: energy counts/s
#
542  1288.75
541.9  1275.15
541.8  1271.3
541.7  1282.75
541.6  1275.05
541.5  1269.075
541.4  1270.7
541.3  1265.15
541.2  1262.175
541.1  1257.75
541  1249.775
540.9  1238.775
540.8  1252.35
540.7  1251.375
540.6  1241.175
540.5  1241.75
540.4  1221.15
540.3  1229.25
540.2  1225.575
540.1  1216.1
540  1225.525
539.9  1226.55
539.8  1209.45
539.7  1206.6
539.6  1202.7
539.5  1199.575
539.4  1201.325
539.3  1192.225
539.2  1183.775
539.1  1187.575
539  1175.425
538.9  1177.275
538.8  1174.175
538.7  1172.925
538.6  1158.825
538.5  1164.45
538.4  1150.3
538.3  1160.725
538.2  1160.65
538.1  1141.6
538  1145.975
537.9  1136.75
537.8  1133
537.7  1126.9
537.6  1130.175
537.5  1127.725
537.4  1124.475
537.3  1118.525
537.2  1116.225
537.1  1112.325
537  1108.9
536.9  1108.35
536.8  1104.65
536.7  1111.9
536.6  1109.75
536.5  1104.1
536.4  1088.9
536.3  1091.95
536.2  1095.95
536.1  1085.675
536  1084.325
535.9  1093.125
535.8  1092.025
535.7  1089.825
535.6  1079.85
535.5  1078.825
535.4  1084.35
535.3  1074.5
535.2  1075.425
535.1  1054.175
535  1066.85
534.9  1073.45
534.8  1076.5
534.7  1065.625
534.6  1064.175
534.5  1067.025
534.4  1065.225
534.3  1072.175
534.2  1063.425
534.1  1065.3
534  1061.025
533.9  1059
533.8  1066.575
533.7  1060.375
533.6  1052.6
533.5  1066.45
533.4  1059.775
533.3  1047.175
533.2  1050.975
533.1  1069.25
533  1060.925
532.9  1051.85
532.8  1058.25
532.7  1057.875
532.6  1058.3
532.5  1051.85
532.4  1064.65
532.3  1047.325
532.2  1051.925
532.1  1051.625
532  1061
531.9  1056.7
531.8  1053.525
531.7  1053.85
531.6  1058.3
531.5  1045.9
531.4  1055.475
531.3  1046.725
531.2  1047.55
531.1  1049.3
531  1042
530.9  1051.9
530.8  1049.45
530.7  1040.8
530.6  1045.75
530.5  1053.625
530.4  1048.05
530.3  1048.475
530.2  1049.2
530.1  1056.025
530  1045.325
529.9  1046.525
529.8  1037.575
529.7  1044.75
529.6  1036.65
529.5  1032.65
529.4  1037.625
529.3  1040.225
529.2  1029.275
529.1  1040.225
529  1035.2
528.9  1030.925
528.8  1038.975
528.7  1034.125
528.6  1031.425
528.5  1036.05
528.4  1034.175
528.3  1022.2
528.2  1028.975
528.1  1034.85
528  1024.95
527.9  1027.6
527.8  1031.325
527.7  1028.1
527.6  1036.9
527.5  1021.95
527.4  1035.075
527.3  1028.1
527.2  1026.375
527.1  1042.3
527  1030.625
526.9  1030.85
526.8  1034.125
526.7  1028.05
526.6  1027.775
526.5  1030.4
526.4  1021.875
526.3  1018.4
526.2  1028.75
526.1  1027.225
526  1029.15
525.9  1023.275
525.8  1038.625
525.7  1023.35
525.6  1026.6
525.5  1030.225
525.4  1027.075
525.3  1021.55
525.2  1029.575
525.1  1028.75
525  1020.15

# Region:            N 1s
# Acquisition Date:  08/30/22 01:53:30 UTC
# Analysis Method:   XPS
# Analyzer:          Phoibos 100 R6
# Analyzer Lens:     LargeArea:1.5kV
# Analyzer Slit:     5:7x20\B:open
# Scan Mode:         FixedAnalyzerTransmission
# Curves/Scan:       1
# Values/Curve:      101
# Dwell Time:        0.8
# Excitation Energy: 1486.61
# Binding Energy:    405
# Pass Energy:       30
# Bias Voltage:      90
# Detector Voltage:  2600
# Eff. Workfunction: 4.309
# Source:            X-Ray Dummy
# Comment:           
#
# Cycle: 0
# Number of Scans: 100
#
# Cycle: 0, Curve: 0
# Acquisition Date: 08/30/22 01:53:30 UTC
#
# ColumnLabels: energy counts/s
#
405  965.0125
404.9  963.625
404.8  966.1375
404.7  969.825
404.6  961.225
404.5  960.425
404.4  964.35
404.3  962.4875
404.2  960.2125
404.1  968.4625
404  965.375
403.9  962.7875
403.8  962.3125
403.7  963.3875
403.6  965.1125
403.5  961.225
403.4  963.55
403.3  960.425
403.2  958.65
403.1  961.25
403  961.925
402.9  955.6125
402.8  959.725
402.7  956.4
402.6  954.8
402.5  959.1375
402.4  957.7125
402.3  954.525
402.2  948.3
402.1  949.4875
402  949.9625
401.9  954.275
401.8  952.4125
401.7  949.3875
401.6  947.3125
401.5  950.9
401.4  949.3875
401.3  944.975
401.2  948.025
401.1  946.6125
401  942.8125
400.9  945.85
400.8  946.4375
400.7  941.1875
400.6  938.1125
400.5  945.2375
400.4  944.125
400.3  942.525
400.2  940.65
400.1  939.65
400  938.675
399.9  934.925
399.8  938.725
399.7  939.1
399.6  938.7
399.5  937.975
399.4  937.0625
399.3  935.5625
399.2  940.4625
399.1  938.6
399  939.0875
398.9  937.35
398.8  936.1875
398.7  935.3875
398.6  936.3125
398.5  933.6375
398.4  935.15
398.3  940.5125
398.2  928.3875
398.1  933.0625
398  936.275
397.9  925.5375
397.8  935.3625
397.7  931.65
397.6  930.2625
397.5  925.2875
397.4  922.7375
397.3  931.8125
397.2  929.7125
397.1  932.3
397  930.0625
396.9  920.9
396.8  922.1875
396.7  923.125
396.6  923.8875
396.5  924.7625
396.4  925.075
396.3  915.1
396.2  918.5
396.1  922.975
396  928.85
395.9  921.375
395.8  924.75
395.7  921.9125
395.6  923.1625
395.5  923.15
395.4  926.1
395.3  923.35
395.2  917.775
395.1  921.4
395  922.5125

# Region:            Cu 2p
# Acquisition Date:  08/29/22 17:55:24 UTC
# Analysis Method:   XPS
# Analyzer:          Phoibos 100 R6
# Analyzer Lens:     LargeArea:1.5kV
# Analyzer Slit:     5:7x20\B:open
# Scan Mode:         FixedAnalyzerTransmission
# Curves/Scan:       1
# Values/Curve:      341
# Dwell Time:        0.8
# Excitation Energy: 1486.61
# Binding Energy:    960
# Pass Energy:       30
# Bias Voltage:      90
# Detector Voltage:  2600
# Eff. Workfunction: 4.309
# Source:            X-Ray Dummy
# Comment:           
#
# Cycle: 0
# Number of Scans: 2
#
# Cycle: 0, Curve: 0
# Acquisition Date: 08/29/22 17:55:24 UTC
#
# ColumnLabels: energy counts/s
#
960  15418.75
959.9  15407.5
959.8  15486.875
959.7  15342.5
959.6  15289.375
959.5  15388.125
959.4  15303.75
959.3  15315.625
959.2  15138.75
959.1  15385.625
959  15397.5
958.9  15513.125
958.8  15271.875
958.7  15413.75
958.6  15240.625
958.5  15309.375
958.4  15301.875
958.3  15382.5
958.2  15553.75
958.1  15615.625
958  15561.25
957.9  15430.625
957.8  15535
957.7  15475
957.6  15595.625
957.5  15671.875
957.4  15707.5
957.3  15766.25
957.2  15694.375
957.1  15860
957  15776.875
956.9  15908.75
956.8  16035
956.7  15950
956.6  16148.75
956.5  15851.25
956.4  16173.125
956.3  16265
956.2  16257.5
956.1  16415.625
956  16370
955.9  16719.375
955.8  16738.75
955.7  16779.375
955.6  16710
955.5  17081.25
955.4  17230.625
955.3  17238.125
955.2  17506.25
955.1  17745.625
955  17907.5
954.9  18438.75
954.8  18325.625
954.7  18855.625
954.6  19166.875
954.5  19382.5
954.4  20211.875
954.3  20785.625
954.2  21186.875
954.1  21903.125
954  22431.25
953.9  23244.375
953.8  23800
953.7  24550
953.6  25405
953.5  26302.5
953.4  27087.5
953.3  27971.25
953.2  28690.625
953.1  29105
953  29918.125
952.9  30020.625
952.8  30275.625
952.7  30342.5
952.6  30252.5
952.5  30068.75
952.4  29646.25
952.3  29213.75
952.2  28376.875
952.1  27610.625
952  26801.25
951.9  25621.25
951.8  24903.75
951.7  23865
951.6  22999.375
951.5  21850
951.4  21381.25
951.3  20746.25
951.2  19853.125
951.1  19240.625
951  18582.5
950.9  18296.25
950.8  17708.75
950.7  17318.125
950.6  17126.875
950.5  16696.25
950.4  16648.75
950.3  16386.25
950.2  16123.125
950.1  15827.5
950  15733.125
949.9  15525.625
949.8  15568.125
949.7  15353.75
949.6  15401.25
949.5  15140
949.4  14962.5
949.3  14979.375
949.2  14738.125
949.1  14818.75
949  14690
948.9  14657.5
948.8  14573.75
948.7  14643.75
948.6  14663.125
948.5  14534.375
948.4  14306.25
948.3  14476.25
948.2  14482.5
948.1  14317.5
948  14286.875
947.9  14376.25
947.8  14416.875
947.7  14433.125
947.6  14263.75
947.5  14353.125
947.4  14370.625
947.3  14363.75
947.2  14452.5
947.1  14268.75
947  14147.5
946.9  14419.375
946.8  14253.75
946.7  14337.5
946.6  14202.5
946.5  14188.75
946.4  14188.75
946.3  14323.125
946.2  14186.25
946.1  14115.625
946  14099.375
945.9  14206.25
945.8  14176.25
945.7  14061.25
945.6  14073.125
945.5  14210.625
945.4  14046.875
945.3  14159.375
945.2  13950.625
945.1  14123.75
945  14049.375
944.9  14112.5
944.8  14032.5
944.7  13942.5
944.6  14110.625
944.5  13913.75
944.4  13810
944.3  14170
944.2  13844.375
944.1  14197.5
944  14378.125
943.9  14228.75
943.8  14298.75
943.7  14353.75
943.6  14261.875
943.5  14397.5
943.4  14543.75
943.3  14377.5
943.2  14529.375
943.1  14430
943  14416.25
942.9  14398.75
942.8  14579.375
942.7  14393.125
942.6  14261.875
942.5  14043.75
942.4  14201.25
942.3  14290.625
942.2  14136.25
942.1  13885
942  13841.25
941.9  13703.125
941.8  13688.75
941.7  13578.75
941.6  13551.875
941.5  13552.5
941.4  13478.125
941.3  13426.875
941.2  13353.125
941.1  13362.5
941  13436.875
940.9  13306.875
940.8  13231.875
940.7  13152.5
940.6  13270.625
940.5  13133.125
940.4  13173.75
940.3  13178.125
940.2  12899.375
940.1  12915.625
940  12930.625
939.9  12948.125
939.8  12809.375
939.7  12814.375
939.6  12785.625
939.5  12693.75
939.4  12758.75
939.3  12550
939.2  12615
939.1  12658.75
939  12646.25
938.9  12619.375
938.8  12477.5
938.7  12499.375
938.6  12644.375
938.5  12380
938.4  12556.875
938.3  12635
938.2  12612.5
938.1  12713.125
938  12468.75
937.9  12653.125
937.8  12711.875
937.7  12679.375
937.6  12878.125
937.5  12888.75
937.4  12890
937.3  12893.125
937.2  12941.875
937.1  13120.625
937  13031.875
936.9  13078.75
936.8  13261.25
936.7  13127.5
936.6  13375.625
936.5  13305.625
936.4  13406.25
936.3  13310.625
936.2  13633.125
936.1  13631.875
936  13641.875
935.9  13848.125
935.8  13989.375
935.7  13864.375
935.6  14208.75
935.5  14221.25
935.4  14531.25
935.3  14759.375
935.2  14900.625
935.1  15416.875
935  15919.375
934.9  16365
934.8  17061.875
934.7  17811.875
934.6  18602.5
934.5  19485.625
934.4  20787.5
934.3  22278.125
934.2  23715.625
934.1  25491.25
934  27640
933.9  29591.875
933.8  31891.25
933.7  34575
933.6  37272.5
933.5  39778.125
933.4  42721.25
933.3  45340.625
933.2  47336.25
933.1  49050
933  50451.25
932.9  51013.75
932.8  50950.625
932.7  50380.625
932.6  49093.75
932.5  47142.5
932.4  44823.125
932.3  41695.625
932.2  38984.375
932.1  35686.25
932  32810
931.9  29708.125
931.8  27015
931.7  24501.25
931.6  22238.75
931.5  20322.5
931.4  18647.5
931.3  17126.25
931.2  15933.125
931.1  15106.25
931  14110
930.9  13558.75
930.8  12916.875
930.7  12482.5
930.6  11983.75
930.5  11725.625
930.4  11398.125
930.3  11221.25
930.2  11020
930.1  10693.125
930  10575
929.9  10469.375
929.8  10210.625
929.7  10014.375
929.6  10056.25
929.5  9968.75
929.4  9845
929.3  9672.5
929.2  9625.625
929.1  9437.5
929  9314.375
928.9  9354.375
928.8  9340.625
928.7  9328.125
928.6  9220
928.5  9198.75
928.4  9071.875
928.3  9210.625
928.2  9138.75
928.1  9051.25
928  8990.625
927.9  8926.25
927.8  9009.375
927.7  9067.5
927.6  9062.5
927.5  9132.5
927.4  9009.375
927.3  8836.25
927.2  8936.875
927.1  9035.625
927  8908.75
926.9  8678.125
926.8  8736.25
926.7  8836.25
926.6  8746.25
926.5  8530.625
926.4  8749.375
926.3  8583.75
926.2  8686.875
926.1  8881.875
926  8573.75

# Region:            Ba 3d
# Acquisition Date:  08/29/22 21:56:45 UTC
# Analysis Method:   XPS
# Analyzer:          Phoibos 100 R6
# Analyzer Lens:     LargeArea:1.5kV
# Analyzer Slit:     5:7x20\B:open
# Scan Mode:         FixedAnalyzerTransmission
# Curves/Scan:       1
# Values/Curve:      281
# Dwell Time:        0.8
# Excitation Energy: 1486.61
# Binding Energy:    801
# Pass Energy:       30
# Bias Voltage:      90
# Detector Voltage:  2600
# Eff. Workfunction: 4.309
# Source:            X-Ray Dummy
# Comment:           
#
# Cycle: 0
# Number of Scans: 20
#
# Cycle: 0, Curve: 0
# Acquisition Date: 08/29/22 21:56:45 UTC
#
# ColumnLabels: energy counts/s
#
801  7482.125
800.9  7488
800.8  7467.5
800.7  7492
800.6  7481.5625
800.5  7479.5
800.4  7465.8125
800.3  7444.5
800.2  7479.75
800.1  7487.8125
800  7458.5
799.9  7485.4375
799.8  7512
799.7  7490.6875
799.6  7502.3125
799.5  7500
799.4  7461.6875
799.3  7465.25
799.2  7453.5
799.1  7457
799  7460.875
798.9  7503.75
798.8  7490.5
798.7  7476.3125
798.6  7504.75
798.5  7480.375
798.4  7449.5
798.3  7516.0625
798.2  7509.125
798.1  7460.3125
798  7476.875
797.9  7476.5
797.8  7491.25
797.7  7445.8125
797.6  7460.875
797.5  7475.75
797.4  7518.75
797.3  7487.875
797.2  7486.9375
797.1  7501.625
797  7522.625
796.9  7510.3125
796.8  7465.4375
796.7  7499.5625
796.6  7503.25
796.5  7483.6875
796.4  7493.9375
796.3  7534.125
796.2  7482.8125
796.1  7462.75
796  7463.3125
795.9  7514.625
795.8  7515.0625
795.7  7483.5
795.6  7504.875
795.5  7454.25
795.4  7504.625
795.3  7519.1875
795.2  7510.25
795.1  7484.375
795  7493.5
794.9  7513.25
794.8  7557.5
794.7  7466.875
794.6  7509.0625
794.5  7489.0625
794.4  7517.3125
794.3  7500.5
794.2  7513.9375
794.1  7485.75
794  7493.375
793.9  7523.5
793.8  7498
793.7  7500.625
793.6  7517.5625
793.5  7493.125
793.4  7487.0625
793.3  7492.6875
793.2  7479.375
793.1  7503.875
793  7482.6875
792.9  7504.3125
792.8  7532.25
792.7  7504.375
792.6  7514.375
792.5  7542.4375
792.4  7506.6875
792.3  7506.1875
792.2  7500.5625
792.1  7558.9375
792  7504.125
791.9  7526
791.8  7493.8125
791.7  7531.875
791.6  7499.9375
791.5  7547.5625
791.4  7557.1875
791.3  7524.6875
791.2  7546.0625
791.1  7511.8125
791  7522.4375
790.9  7485.75
790.8  7567.625
790.7  7517.375
790.6  7519.0625
790.5  7557.8125
790.4  7581.5625
790.3  7574.3125
790.2  7569.5
790.1  7505.5
790  7559.4375
789.9  7537.8125
789.8  7516.3125
789.7  7549.5625
789.6  7572.3125
789.5  7561.5625
789.4  7585.4375
789.3  7550.375
789.2  7558.6875
789.1  7556.5625
789  7574
788.9  7623.875
788.8  7557.8125
788.7  7572.875
788.6  7581.25
788.5  7585.1875
788.4  7562.5
788.3  7564.75
788.2  7539.75
788.1  7588.25
788  7573.5625
787.9  7556.9375
787.8  7565.3125
787.7  7583
787.6  7570.1875
787.5  7563.9375
787.4  7579.9375
787.3  7565.5
787.2  7571.1875
787.1  7594.5
787  7570.5625
786.9  7580.75
786.8  7636.375
786.7  7600.3125
786.6  7526.75
786.5  7570.25
786.4  7612.0625
786.3  7585.375
786.2  7628.375
786.1  7581.3125
786  7618.625
785.9  7582
785.8  7563.4375
785.7  7621.125
785.6  7573.3125
785.5  7584.375
785.4  7609.75
785.3  7623.375
785.2  7592.375
785.1  7618.5625
785  7605.875
784.9  7637.25
784.8  7619.4375
784.7  7604.25
784.6  7610.5625
784.5  7582.3125
784.4  7618.5
784.3  7601
784.2  7642.0625
784.1  7604.0625
784  7651.8125
783.9  7632.625
783.8  7625.5
783.7  7637.0625
783.6  7637.3125
783.5  7635.5625
783.4  7670.1875
783.3  7637.125
783.2  7635.625
783.1  7683.1875
783  7605.6875
782.9  7641.375
782.8  7615.6875
782.7  7643.75
782.6  7680.6875
782.5  7652.6875
782.4  7650.0625
782.3  7684.1875
782.2  7628.625
782.1  7664.6875
782  7699.625
781.9  7644.3125
781.8  7649.9375
781.7  7677
781.6  7698.1875
781.5  7692.6875
781.4  7676.875
781.3  7693.625
781.2  7640.9375
781.1  7713.25
781  7693.875
780.9  7702.9375
780.8  7702.6875
780.7  7697.75
780.6  7673.75
780.5  7716.5625
780.4  7737.875
780.3  7748.75
780.2  7722.875
780.1  7724.75
780  7733.5
779.9  7698.75
779.8  7692.6875
779.7  7700.875
779.6  7729.25
779.5  7738.75
779.4  7720.875
779.3  7783.8125
779.2  7764.125
779.1  7735.375
779  7756.8125
778.9  7771.875
778.8  7788.0625
778.7  7785.875
778.6  7798.4375
778.5  7775.1875
778.4  7763
778.3  7789.375
778.2  7804.3125
778.1  7822.1875
778  7837.3125
777.9  7845.8125
777.8  7803.3125
777.7  7772.6875
777.6  7806.125
777.5  7837
777.4  7850.1875
777.3  7829.25
777.2  7816.375
777.1  7822.4375
777  7811
776.9  7838.875
776.8  7836.875
776.7  7877.625
776.6  7852.9375
776.5  7858.125
776.4  7898.5
776.3  7825.6875
776.2  7870.875
776.1  7847
776  7854.875
775.9  7884.625
775.8  7855.625
775.7  7908.4375
775.6  7857.625
775.5  7866
775.4  7880.5
775.3  7912
775.2  7899
775.1  7900.3125
775  7855.3125
774.9  7853.4375
774.8  7901.875
774.7  7893
774.6  7885.8125
774.5  7900.25
774.4  7911.4375
774.3  7876.3125
774.2  7846
774.1  7902.3125
774  7868.4375
773.9  7916.4375
773.8  7891.3125
773.7  7887.4375
773.6  7892.25
773.5  7874.8125
773.4  7914.1875
773.3  7909.6875
773.2  7928.8125
773.1  7919.4375
773  7911.6875

# Region:            Cl 2p
# Acquisition Date:  08/29/22 21:58:15 UTC
# Analysis Method:   XPS
# Analyzer:          Phoibos 100 R6
# Analyzer Lens:     LargeArea:1.5kV
# Analyzer Slit:     5:7x20\B:open
# Scan Mode:         FixedAnalyzerTransmission
# Curves/Scan:       1
# Values/Curve:      111
# Dwell Time:        0.8
# Excitation Energy: 1486.61
# Binding Energy:    207
# Pass Energy:       30
# Bias Voltage:      90
# Detector Voltage:  2600
# Eff. Workfunction: 4.309
# Source:            X-Ray Dummy
# Comment:           
#
# Cycle: 0
# Number of Scans: 20
#
# Cycle: 0, Curve: 0
# Acquisition Date: 08/29/22 21:58:15 UTC
#
# ColumnLabels: energy counts/s
#
207  884.8125
206.9  903.75
206.8  879.0625
206.7  884.1875
206.6  872.625
206.5  870.5
206.4  883.875
206.3  875.125
206.2  881.375
206.1  890.5625
206  876.8125
205.9  884.875
205.8  888.4375
205.7  878.4375
205.6  878.8125
205.5  890.875
205.4  883.625
205.3  874.5
205.2  879.75
205.1  880.125
205  890.5
204.9  867.375
204.8  873.4375
204.7  882.3125
204.6  881.875
204.5  891.625
204.4  873.1875
204.3  879.5
204.2  886.5625
204.1  869.0625
204  877.0625
203.9  879.3125
203.8  880.4375
203.7  902
203.6  882.75
203.5  884.6875
203.4  895.125
203.3  887.1875
203.2  880.5625
203.1  880.75
203  897.6875
202.9  877.0625
202.8  884
202.7  882.125
202.6  885.75
202.5  880.5625
202.4  873.4375
202.3  890.5
202.2  882
202.1  884
202  881.5625
201.9  895.9375
201.8  875.3125
201.7  891.25
201.6  884.3125
201.5  892
201.4  879.75
201.3  871.1875
201.2  887.625
201.1  890.875
201  890
200.9  887.0625
200.8  891.1875
200.7  878.5
200.6  875.5625
200.5  899.5625
200.4  895.8125
200.3  894.5625
200.2  874.875
200.1  898.5625
200  901.125
199.9  890.5
199.8  877.125
199.7  886.8125
199.6  885.125
199.5  872.4375
199.4  880.75
199.3  882.125
199.2  890.375
199.1  897.1875
199  883.6875
198.9  890.6875
198.8  877.625
198.7  894.4375
198.6  889.0625
198.5  882.6875
198.4  894.125
198.3  875.25
198.2  889.3125
198.1  886.625
198  893.3125
197.9  893.4375
197.8  893.875
197.7  900.8125
197.6  896.9375
197.5  906.75
197.4  890
197.3  880.6875
197.2  908.625
197.1  885.3125
197  910.625
196.9  895.9375
196.8  891.9375
196.7  889
196.6  884.25
196.5  900
196.4  891.3125
196.3  890.8125
196.2  906.0625
196.1  892.375
196  898.1875

# Region:            Si 2p
# Acquisition Date:  08/29/22 21:59:45 UTC
# Analysis Method:   XPS
# Analyzer:          Phoibos 100 R6
# Analyzer Lens:     LargeArea:1.5kV
# Analyzer Slit:     5:7x20\B:open
# Scan Mode:         FixedAnalyzerTransmission
# Curves/Scan:       1
# Values/Curve:      111
# Dwell Time:        0.8
# Excitation Energy: 1486.61
# Binding Energy:    112
# Pass Energy:       30
# Bias Voltage:      90
# Detector Voltage:  2600
# Eff. Workfunction: 4.309
# Source:            X-Ray Dummy
# Comment:           
#
# Cycle: 0
# Number of Scans: 20
#
# Cycle: 0, Curve: 0
# Acquisition Date: 08/29/22 21:59:45 UTC
#
# ColumnLabels: energy counts/s
#
112  1018.375
111.9  1000.75
111.8  1013.625
111.7  1001.125
111.6  1001.125
111.5  1007.3125
111.4  998.3125
111.3  1007.75
111.2  997.6875
111.1  987.625
111  1009
110.9  999.625
110.8  981.125
110.7  971.5625
110.6  979.3125
110.5  971.875
110.4  978.1875
110.3  972.9375
110.2  976.625
110.1  979.5625
110  965.375
109.9  977.1875
109.8  963.125
109.7  964.875
109.6  978.625
109.5  973.875
109.4  981.8125
109.3  953.1875
109.2  957.125
109.1  946.875
109  946.3125
108.9  955.4375
108.8  964.3125
108.7  958.875
108.6  955.25
108.5  973.0625
108.4  955.3125
108.3  950.6875
108.2  958.375
108.1  961.1875
108  964.875
107.9  947.9375
107.8  961.375
107.7  954.375
107.6  970.25
107.5  955.5625
107.4  968
107.3  966.25
107.2  952.625
107.1  985
107  969.25
106.9  978.0625
106.8  966.75
106.7  976.8125
106.6  972.125
106.5  976.75
106.4  973
106.3  964.875
106.2  958.0625
106.1  972.0625
106  978.4375
105.9  963.625
105.8  990.25
105.7  980.1875
105.6  955.6875
105.5  977.125
105.4  980.1875
105.3  979.125
105.2  970.8125
105.1  991.25
105  975.4375
104.9  968.75
104.8  978.625
104.7  974.75
104.6  979.8125
104.5  989.8125
104.4  986.6875
104.3  986.8125
104.2  980.5
104.1  991.5625
104  992.5
103.9  999.25
103.8  1004.5625
103.7  992.0625
103.6  999.125
103.5  997.625
103.4  1005.0625
103.3  995.3125
103.2  991.625
103.1  990.3125
103  987.0625
102.9  997.6875
102.8  1002.0625
102.7  1003.625
102.6  1004.9375
102.5  1011.6875
102.4  1013.5625
102.3  995.1875
102.2  1003.5625
102.1  1004
102  1004.3125
101.9  1000.125
101.8  997.1875
101.7  991.375
101.6  997.9375
101.5  1010.125
101.4  1022.4375
101.3  998.75
101.2  994.9375
101.1  1003.875
101  1003.8125

# Group:             overview_HD
#
# Region:            overview
# Acquisition Date:  08/30/22 07:20:18 UTC
# Analysis Method:   XPS
# Analyzer:          Phoibos 100 R6
# Analyzer Lens:     LargeArea:1.5kV
# Analyzer Slit:     5:7x20\B:open
# Scan Mode:         FixedAnalyzerTransmission
# Curves/Scan:       1
# Values/Curve:      6021
# Dwell Time:        0.4
# Excitation Energy: 1486.61
# Binding Energy:    1200
# Pass Energy:       30
# Bias Voltage:      90
# Detector Voltage:  2600
# Eff. Workfunction: 4.309
# Source:            X-Ray Dummy
# Comment:           
#
# Cycle: 0
# Number of Scans: 8
#
# Cycle: 0, Curve: 0
# Acquisition Date: 08/30/22 07:20:18 UTC
#
# ColumnLabels: energy counts/s
#
1200  14212.188
1199.8  14118.125
1199.6  14024.063
1199.4  14096.563
1199.2  14140.938
1199  14098.438
1198.8  14055.625
1198.6  14058.125
1198.4  14074.375
1198.2  13920
1198  13999.375
1197.8  14033.438
1197.6  14078.125
1197.4  14027.188
1197.2  13966.563
1197  14034.688
1196.8  14055.625
1196.6  13991.875
1196.4  14013.438
1196.2  13963.438
1196  13878.125
1195.8  13985
1195.6  14080.938
1195.4  14012.813
1195.2  13935
1195  13997.5
1194.8  13898.75
1194.6  13919.063
1194.4  14015
1194.2  14030
1194  14052.813
1193.8  14037.188
1193.6  13986.25
1193.4  13940.313
1193.2  13956.563
1193  13944.688
1192.8  14046.563
1192.6  13960
1192.4  13902.5
1192.2  13900.313
1192  13979.375
1191.8  13810.625
1191.6  13888.438
1191.4  13965.625
1191.2  14050.313
1191  13844.688
1190.8  13921.875
1190.6  13846.563
1190.4  14005.313
1190.2  13708.75
1190  13832.813
1189.8  13857.813
1189.6  13875
1189.4  13890.313
1189.2  14117.5
1189  13961.875
1188.8  13915.938
1188.6  13772.813
1188.4  13923.438
1188.2  13886.875
1188  13859.063
1187.8  13897.813
1187.6  13922.5
1187.4  13911.875
1187.2  13892.188
1187  14107.813
1186.8  13897.5
1186.6  13929.688
1186.4  13904.063
1186.2  13962.813
1186  13921.875
1185.8  13990
1185.6  13955.625
1185.4  13897.813
1185.2  13968.75
1185  13874.688
1184.8  13890
1184.6  13936.875
1184.4  13909.063
1184.2  13819.688
1184  13803.125
1183.8  13849.375
1183.6  13878.125
1183.4  13917.813
1183.2  13785.625
1183  13898.75
1182.8  14005.938
1182.6  13742.188
1182.4  13790.313
1182.2  13833.438
1182  13731.875
1181.8  13895.625
1181.6  13797.188
1181.4  13887.188
1181.2  13864.063
1181  13807.188
1180.8  13833.75
1180.6  13716.563
1180.4  13739.063
1180.2  13875.938
1180  13792.188
1179.8  13835.313
1179.6  13819.063
1179.4  13724.688
1179.2  13800.938
1179  13792.188
1178.8  13734.688
1178.6  13863.75
1178.4  13818.438
1178.2  13785
1178  13799.375
1177.8  13671.563
1177.6  13866.563
1177.4  13753.75
1177.2  13752.188
1177  13888.75
1176.8  13788.438
1176.6  13816.875
1176.4  13702.813
1176.2  13840
1176  13854.688
1175.8  13965.938
1175.6  13686.25
1175.4  13834.063
1175.2  13840.938
1175  13840.313
1174.8  13875.938
1174.6  13857.813
1174.4  13841.563
1174.2  13800
1174  13868.75
1173.8  13804.063
1173.6  13838.438
1173.4  13774.375
1173.2  13825
1173  13868.75
1172.8  13818.75
1172.6  13706.25
1172.4  13798.125
1172.2  13776.875
1172  13690.313
1171.8  13742.813
1171.6  13815.625
1171.4  13753.125
1171.2  13662.5
1171  13693.438
1170.8  13846.875
1170.6  13696.25
1170.4  13803.438
1170.2  13670.625
1170  13693.75
1169.8  13757.188
1169.6  13683.438
1169.4  13634.375
1169.2  13867.188
1169  13720.625
1168.8  13743.75
1168.6  13776.25
1168.4  13670.625
1168.2  13811.25
1168  13731.563
1167.8  13730.625
1167.6  13764.688
1167.4  13788.438
1167.2  13796.875
1167  13679.063
1166.8  13850.313
1166.6  13872.5
1166.4  13812.5
1166.2  13898.125
1166  13875
1165.8  13901.875
1165.6  13847.5
1165.4  13925
1165.2  13740.313
1165  13798.125
1164.8  13741.875
1164.6  13691.25
1164.4  13689.688
1164.2  13708.438
1164  13632.5
1163.8  13804.063
1163.6  13703.75
1163.4  13674.688
1163.2  13725
1163  13725.938
1162.8  13733.75
1162.6  13704.688
1162.4  13668.438
1162.2  13684.063
1162  13670.313
1161.8  13670
1161.6  13652.813
1161.4  13614.375
1161.2  13562.5
1161  13674.688
1160.8  13740.625
1160.6  13766.875
1160.4  13588.125
1160.2  13671.875
1160  13772.188
1159.8  13741.875
1159.6  13641.563
1159.4  13665
1159.2  13596.875
1159  13730
1158.8  13566.875
1158.6  13816.563
1158.4  13599.375
1158.2  13707.813
1158  13703.75
1157.8  13729.063
1157.6  13560
1157.4  13662.5
1157.2  13662.188
1157  13757.813
1156.8  13704.375
1156.6  13626.875
1156.4  13663.125
1156.2  13652.188
1156  13632.188
1155.8  13712.188
1155.6  13710.938
1155.4  13790
1155.2  13601.563
1155  13666.875
1154.8  13581.25
1154.6  13715.938
1154.4  13619.063
1154.2  13648.125
1154  13608.125
1153.8  13646.25
1153.6  13712.813
1153.4  13682.5
1153.2  13789.375
1153  13634.375
1152.8  13662.188
1152.6  13688.75
1152.4  13803.75
1152.2  13695.625
1152  13702.813
1151.8  13675.313
1151.6  13716.563
1151.4  13660.938
1151.2  13653.125
1151  13669.375
1150.8  13645
1150.6  13568.438
1150.4  13704.063
1150.2  13804.375
1150  13805
1149.8  13623.438
1149.6  13719.375
1149.4  13722.5
1149.2  13727.813
1149  13651.875
1148.8  13779.063
1148.6  13739.688
1148.4  13693.125
1148.2  13760.625
1148  13684.688
1147.8  13647.188
1147.6  13712.5
1147.4  13813.75
1147.2  13672.188
1147  13704.063
1146.8  13795.625
1146.6  13775.313
1146.4  13744.688
1146.2  13668.125
1146  13657.5
1145.8  13722.5
1145.6  13629.688
1145.4  13695.625
1145.2  13584.375
1145  13679.375
1144.8  13710.625
1144.6  13731.875
1144.4  13681.563
1144.2  13790.313
1144  13565
1143.8  13767.5
1143.6  13788.75
1143.4  13808.125
1143.2  13716.563
1143  13704.375
1142.8  13710.625
1142.6  13671.25
1142.4  13749.063
1142.2  13827.813
1142  13693.438
1141.8  13663.438
1141.6  13726.25
1141.4  13735.313
1141.2  13815.625
1141  13830
1140.8  13726.875
1140.6  13880.938
1140.4  13799.063
1140.2  13821.25
1140  13736.875
1139.8  13777.813
1139.6  13571.25
1139.4  13792.5
1139.2  13678.75
1139  13823.438
1138.8  13930.313
1138.6  13787.5
1138.4  13757.188
1138.2  13690.313
1138  13641.563
1137.8  13860.313
1137.6  13692.813
1137.4  13772.188
1137.2  13801.563
1137  13807.5
1136.8  13763.438
1136.6  13846.563
1136.4  13798.438
1136.2  13790.938
1136  13843.125
1135.8  13889.688
1135.6  13801.563
1135.4  13849.063
1135.2  13864.375
1135  13777.188
1134.8  13699.375
1134.6  13863.125
1134.4  13719.375
1134.2  13805.313
1134  13794.063
1133.8  13814.063
1133.6  13795
1133.4  13735
1133.2  13768.438
1133  13886.875
1132.8  13865.313
1132.6  13832.813
1132.4  13915.625
1132.2  13912.188
1132  13813.438
1131.8  13976.563
1131.6  13895.313
1131.4  13910.625
1131.2  13961.25
1131  13845.313
1130.8  13786.875
1130.6  13998.75
1130.4  13900.625
1130.2  13897.188
1130  13878.125
1129.8  13820.625
1129.6  13815.938
1129.4  13831.25
1129.2  13901.563
1129  13915
1128.8  13896.25
1128.6  13944.375
1128.4  13899.063
1128.2  13925
1128  13975
1127.8  13920
1127.6  13946.875
1127.4  13870.625
1127.2  13909.688
1127  13879.688
1126.8  13879.375
1126.6  13970
1126.4  14033.438
1126.2  13940.938
1126  13976.563
1125.8  13892.5
1125.6  13871.25
1125.4  14011.563
1125.2  13905.313
1125  13930.938
1124.8  14093.75
1124.6  13901.563
1124.4  14078.438
1124.2  14039.375
1124  13920
1123.8  14078.125
1123.6  13898.125
1123.4  14064.063
1123.2  13921.25
1123  13884.688
1122.8  14027.5
1122.6  14090.938
1122.4  14075.313
1122.2  14050.938
1122  13970
1121.8  14110.938
1121.6  14150.625
1121.4  13976.875
1121.2  14009.375
1121  13979.063
1120.8  14109.375
1120.6  14074.688
1120.4  14251.25
1120.2  14091.875
1120  13964.375
1119.8  13988.438
1119.6  14122.5
1119.4  14246.25
1119.2  14141.563
1119  14110
1118.8  14047.813
1118.6  14078.125
1118.4  14070.313
1118.2  14155
1118  14160
1117.8  14043.125
1117.6  14091.875
1117.4  14145.938
1117.2  14087.188
1117  14148.438
1116.8  14160.625
1116.6  14091.875
1116.4  14241.875
1116.2  14153.75
1116  14134.063
1115.8  14187.813
1115.6  13976.563
1115.4  14100.625
1115.2  14233.438
1115  14132.813
1114.8  14118.125
1114.6  14160.938
1114.4  14055.625
1114.2  14192.813
1114  14209.688
1113.8  14170.625
1113.6  14101.563
1113.4  14313.438
1113.2  14198.438
1113  14201.25
1112.8  14273.75
1112.6  14177.188
1112.4  14096.875
1112.2  14353.438
1112  14294.688
1111.8  14280.625
1111.6  14218.125
1111.4  14224.375
1111.2  14160
1111  14251.875
1110.8  14230.313
1110.6  14305.313
1110.4  14245.938
1110.2  14337.813
1110  14214.375
1109.8  14170.938
1109.6  14187.813
1109.4  14281.875
1109.2  14220.313
1109  14206.25
1108.8  14155
1108.6  14119.688
1108.4  14234.375
1108.2  14175.313
1108  14345.313
1107.8  14302.5
1107.6  14256.25
1107.4  14234.688
1107.2  14146.25
1107  14258.125
1106.8  14157.5
1106.6  14325
1106.4  14195
1106.2  14235
1106  14335
1105.8  14325.938
1105.6  14256.875
1105.4  14166.563
1105.2  14240
1105  14245.313
1104.8  14173.438
1104.6  14389.375
1104.4  14213.125
1104.2  14271.563
1104  14399.375
1103.8  14442.813
1103.6  14259.688
1103.4  14348.75
1103.2  14374.063
1103  14474.063
1102.8  14565.938
1102.6  14556.25
1102.4  14507.5
1102.2  14414.688
1102  14532.813
1101.8  14697.188
1101.6  14650
1101.4  14883.125
1101.2  14760
1101  14865.313
1100.8  14973.438
1100.6  14908.438
1100.4  14998.438
1100.2  15182.188
1100  15223.75
1099.8  15180
1099.6  15415.313
1099.4  15468.438
1099.2  15578.125
1099  15545.313
1098.8  15767.188
1098.6  15910.625
1098.4  15852.813
1098.2  15855.938
1098  16038.75
1097.8  16132.188
1097.6  16110
1097.4  16178.125
1097.2  16202.5
1097  16221.875
1096.8  16178.125
1096.6  16206.25
1096.4  16006.25
1096.2  16128.75
1096  15831.25
1095.8  15989.688
1095.6  15711.875
1095.4  15739.375
1095.2  15536.25
1095  15451.563
1094.8  15317.5
1094.6  15083.438
1094.4  15202.813
1094.2  14960.625
1094  14921.563
1093.8  14588.438
1093.6  14591.875
1093.4  14611.563
1093.2  14340
1093  14437.5
1092.8  14312.188
1092.6  14271.563
1092.4  14300
1092.2  14088.438
1092  14160
1091.8  14054.063
1091.6  13875.938
1091.4  14062.813
1091.2  13885
1091  13892.5
1090.8  13775.313
1090.6  13707.5
1090.4  13731.25
1090.2  13719.375
1090  13703.125
1089.8  13567.813
1089.6  13595
1089.4  13595.313
1089.2  13610.938
1089  13479.375
1088.8  13520.313
1088.6  13491.875
1088.4  13566.25
1088.2  13520.938
1088  13440.625
1087.8  13425
1087.6  13558.438
1087.4  13405.313
1087.2  13422.5
1087  13358.438
1086.8  13402.188
1086.6  13402.813
1086.4  13326.875
1086.2  13481.563
1086  13261.875
1085.8  13422.813
1085.6  13235.938
1085.4  13319.063
1085.2  13343.438
1085  13341.875
1084.8  13414.375
1084.6  13212.5
1084.4  13108.438
1084.2  13227.813
1084  13133.438
1083.8  13179.063
1083.6  13061.25
1083.4  13067.813
1083.2  13119.375
1083  13055.313
1082.8  13044.063
1082.6  13170.625
1082.4  13122.188
1082.2  13129.688
1082  13013.75
1081.8  13118.75
1081.6  12988.438
1081.4  12981.25
1081.2  12910.625
1081  12866.563
1080.8  12934.688
1080.6  13004.063
1080.4  12920.313
1080.2  13029.063
1080  12895.313
1079.8  12887.813
1079.6  12785.938
1079.4  12866.25
1079.2  12813.125
1079  12896.25
1078.8  13000
1078.6  12909.688
1078.4  12889.063
1078.2  12970
1078  12859.063
1077.8  12781.563
1077.6  12874.688
1077.4  12880.313
1077.2  12906.25
1077  12883.438
1076.8  12886.25
1076.6  12845
1076.4  12737.5
1076.2  12930
1076  12849.063
1075.8  12864.063
1075.6  12717.813
1075.4  12940.313
1075.2  12902.813
1075  12926.875
1074.8  12804.688
1074.6  12756.563
1074.4  12697.5
1074.2  12810.625
1074  12876.563
1073.8  12787.813
1073.6  12804.375
1073.4  12835.625
1073.2  12816.563
1073  12794.063
1072.8  13101.563
1072.6  12754.375
1072.4  12817.5
1072.2  12804.063
1072  12789.375
1071.8  12782.188
1071.6  12856.563
1071.4  12836.563
1071.2  12903.438
1071  12819.063
1070.8  12800.313
1070.6  12810.313
1070.4  12725
1070.2  12796.25
1070  12633.75
1069.8  12787.188
1069.6  12770.625
1069.4  12853.125
1069.2  12769.375
1069  12787.5
1068.8  12746.563
1068.6  12668.438
1068.4  12709.688
1068.2  12782.813
1068  12765.938
1067.8  12737.5
1067.6  12739.688
1067.4  12811.25
1067.2  12825.625
1067  12803.438
1066.8  12801.563
1066.6  12800
1066.4  12764.688
1066.2  12776.563
1066  12740.625
1065.8  12855.938
1065.6  12751.875
1065.4  12761.25
1065.2  12695
1065  12704.063
1064.8  12633.75
1064.6  12652.5
1064.4  12751.563
1064.2  12678.75
1064  12668.438
1063.8  12683.125
1063.6  12795.625
1063.4  12830.938
1063.2  12661.563
1063  12687.813
1062.8  12718.438
1062.6  12681.25
1062.4  12711.875
1062.2  12684.063
1062  12790.313
1061.8  12801.875
1061.6  12800.938
1061.4  12678.125
1061.2  12691.25
1061  12868.438
1060.8  12722.188
1060.6  12767.5
1060.4  12746.875
1060.2  12801.875
1060  12774.063
1059.8  12872.188
1059.6  12855
1059.4  12723.125
1059.2  12767.188
1059  12758.75
1058.8  12689.688
1058.6  12774.063
1058.4  12701.875
1058.2  12738.438
1058  12891.563
1057.8  12802.188
1057.6  12745.938
1057.4  12786.563
1057.2  12632.188
1057  12860
1056.8  12850.313
1056.6  12759.063
1056.4  12830.938
1056.2  12879.688
1056  12806.25
1055.8  12695
1055.6  12747.188
1055.4  12851.25
1055.2  12751.875
1055  12797.188
1054.8  12754.063
1054.6  12749.688
1054.4  12758.438
1054.2  12828.125
1054  12715.625
1053.8  12705
1053.6  12792.5
1053.4  12875.625
1053.2  12901.563
1053  12866.875
1052.8  12767.5
1052.6  12836.563
1052.4  12762.5
1052.2  12650.313
1052  12801.25
1051.8  12720.313
1051.6  12842.5
1051.4  12761.563
1051.2  12828.438
1051  12858.75
1050.8  12770
1050.6  12733.438
1050.4  12731.25
1050.2  12807.813
1050  12865.313
1049.8  12847.813
1049.6  12762.5
1049.4  12803.438
1049.2  12759.375
1049  12845.625
1048.8  12782.5
1048.6  12760.625
1048.4  12829.063
1048.2  12786.563
1048  12803.438
1047.8  12863.75
1047.6  12834.375
1047.4  12808.125
1047.2  12692.5
1047  12787.5
1046.8  12818.75
1046.6  12747.5
1046.4  12888.75
1046.2  12817.813
1046  12801.875
1045.8  12855.625
1045.6  12905
1045.4  12918.438
1045.2  12973.125
1045  12851.25
1044.8  12768.438
1044.6  12794.375
1044.4  12899.375
1044.2  12925
1044  12806.25
1043.8  12837.5
1043.6  12885
1043.4  12798.75
1043.2  12804.688
1043  12981.875
1042.8  12849.375
1042.6  12853.125
1042.4  12934.375
1042.2  12705.938
1042  12838.125
1041.8  12950.625
1041.6  12886.875
1041.4  12935.625
1041.2  12930.313
1041  12930.625
1040.8  12865.938
1040.6  12929.688
1040.4  12921.25
1040.2  12866.25
1040  12949.063
1039.8  13011.25
1039.6  12904.375
1039.4  12921.25
1039.2  12950.313
1039  12827.188
1038.8  12744.688
1038.6  13003.125
1038.4  12710.625
1038.2  12822.188
1038  12930
1037.8  12930.938
1037.6  12874.688
1037.4  12889.063
1037.2  12944.375
1037  12988.125
1036.8  12985.313
1036.6  13066.563
1036.4  12917.5
1036.2  12878.438
1036  12982.5
1035.8  13067.813
1035.6  12898.125
1035.4  13068.75
1035.2  12823.438
1035  12957.188
1034.8  12840
1034.6  12924.375
1034.4  12803.438
1034.2  12928.125
1034  12995.625
1033.8  12921.875
1033.6  12939.688
1033.4  12886.25
1033.2  12983.438
1033  12982.5
1032.8  13035
1032.6  13065.625
1032.4  12995.313
1032.2  12955.313
1032  12961.875
1031.8  13051.875
1031.6  12945.938
1031.4  12930
1031.2  13024.063
1031  13045
1030.8  12950.625
1030.6  13012.813
1030.4  12947.188
1030.2  13160.938
1030  13017.188
1029.8  13070.313
1029.6  13081.25
1029.4  13072.5
1029.2  13030.938
1029  12888.125
1028.8  13015.313
1028.6  13071.563
1028.4  12967.5
1028.2  13019.063
1028  12906.563
1027.8  13199.688
1027.6  13037.188
1027.4  13015.625
1027.2  13137.5
1027  13227.188
1026.8  13131.25
1026.6  12993.438
1026.4  12919.375
1026.2  13008.125
1026  13060.938
1025.8  12955.938
1025.6  13021.875
1025.4  13065.938
1025.2  13085.313
1025  12965.313
1024.8  13215.625
1024.6  13125
1024.4  13068.438
1024.2  13029.063
1024  13056.25
1023.8  13080.625
1023.6  13038.125
1023.4  13063.75
1023.2  13056.563
1023  13152.5
1022.8  13020.625
1022.6  13118.438
1022.4  12988.125
1022.2  13209.063
1022  13044.688
1021.8  13186.25
1021.6  13110.313
1021.4  13169.375
1021.2  13177.188
1021  13215.625
1020.8  13093.438
1020.6  13024.375
1020.4  13069.688
1020.2  13096.875
1020  13088.75
1019.8  13168.438
1019.6  13080.313
1019.4  13011.25
1019.2  13125
1019  13204.688
1018.8  13094.375
1018.6  13159.688
1018.4  13169.063
1018.2  13119.375
1018  13100.625
1017.8  13069.063
1017.6  13188.75
1017.4  13054.688
1017.2  13090.938
1017  13192.188
1016.8  13126.875
1016.6  13153.75
1016.4  13188.125
1016.2  13232.5
1016  13286.875
1015.8  13221.875
1015.6  13213.438
1015.4  13123.438
1015.2  13262.813
1015  13111.25
1014.8  13236.563
1014.6  13205.625
1014.4  13197.5
1014.2  13197.813
1014  13278.125
1013.8  13235.625
1013.6  13192.188
1013.4  13251.563
1013.2  13264.375
1013  13296.563
1012.8  13181.875
1012.6  13317.5
1012.4  13230.625
1012.2  13221.563
1012  13279.688
1011.8  13429.375
1011.6  13225.313
1011.4  13222.5
1011.2  13235.625
1011  13194.688
1010.8  13189.375
1010.6  13295.938
1010.4  13371.563
1010.2  13366.875
1010  13353.125
1009.8  13299.375
1009.6  13398.125
1009.4  13314.375
1009.2  13369.063
1009  13409.063
1008.8  13353.438
1008.6  13328.438
1008.4  13449.063
1008.2  13390
1008  13354.063
1007.8  13471.875
1007.6  13433.75
1007.4  13368.438
1007.2  13355.625
1007  13368.75
1006.8  13477.188
1006.6  13470.313
1006.4  13355.938
1006.2  13338.125
1006  13394.688
1005.8  13359.688
1005.6  13425
1005.4  13508.75
1005.2  13372.5
1005  13429.375
1004.8  13481.25
1004.6  13497.813
1004.4  13466.563
1004.2  13478.438
1004  13487.188
1003.8  13460.625
1003.6  13422.188
1003.4  13432.188
1003.2  13454.688
1003  13491.563
1002.8  13598.125
1002.6  13486.875
1002.4  13494.375
1002.2  13585.938
1002  13500.625
1001.8  13630
1001.6  13513.438
1001.4  13555.938
1001.2  13517.813
1001  13676.25
1000.8  13542.188
1000.6  13610
1000.4  13541.25
1000.2  13541.875
1000  13717.5
999.8  13565.313
999.6  13580.938
999.4  13674.063
999.2  13539.375
999  13610.938
998.8  13672.5
998.6  13455.313
998.4  13663.125
998.2  13564.375
998  13619.375
997.8  13644.688
997.6  13718.125
997.4  13665.313
997.2  13837.188
997  13783.125
996.8  13711.875
996.6  13824.688
996.4  13718.125
996.2  13775.313
996  13685.938
995.8  13730.313
995.6  13799.063
995.4  13770.938
995.2  13798.125
995  13716.875
994.8  13631.563
994.6  13763.438
994.4  13748.75
994.2  13861.875
994  13776.875
993.8  13776.25
993.6  13822.813
993.4  13710
993.2  13880.625
993  13842.813
992.8  13731.25
992.6  13934.375
992.4  13839.375
992.2  13817.813
992  13844.063
991.8  13941.25
991.6  13934.375
991.4  13901.875
991.2  13810
991  14005.625
990.8  13941.25
990.6  14030
990.4  13900.313
990.2  13913.75
990  13929.375
989.8  13977.188
989.6  13974.688
989.4  14033.125
989.2  14024.063
989  13950.625
988.8  13959.063
988.6  14080.625
988.4  14240.313
988.2  14034.688
988  14010.313
987.8  13962.813
987.6  14148.75
987.4  14055.313
987.2  14132.813
987  14034.063
986.8  13990.625
986.6  14124.063
986.4  14047.5
986.2  14209.375
986  14234.063
985.8  14239.063
985.6  14189.688
985.4  14050.938
985.2  14196.875
985  14305
984.8  14146.875
984.6  14188.438
984.4  14164.375
984.2  14224.375
984  14306.563
983.8  14252.813
983.6  14428.75
983.4  14163.75
983.2  14291.563
983  14321.875
982.8  14326.875
982.6  14340.938
982.4  14404.063
982.2  14382.813
982  14260.625
981.8  14473.125
981.6  14461.25
981.4  14539.375
981.2  14454.688
981  14481.563
980.8  14586.25
980.6  14571.875
980.4  14614.375
980.2  14440.313
980  14587.188
979.8  14509.063
979.6  14483.75
979.4  14467.188
979.2  14716.875
979  14559.063
978.8  14659.688
978.6  14630.938
978.4  14460.625
978.2  14555.625
978  14599.063
977.8  14661.875
977.6  14652.813
977.4  14600.625
977.2  14612.813
977  14800.313
976.8  14731.563
976.6  14777.813
976.4  14730
976.2  14780.625
976  14774.375
975.8  14955
975.6  14811.25
975.4  14910.313
975.2  14902.813
975  14901.875
974.8  14909.688
974.6  14919.375
974.4  15002.188
974.2  15016.875
974  14979.375
973.8  15061.875
973.6  15042.5
973.4  15175.625
973.2  15038.75
973  15068.438
972.8  15106.875
972.6  15052.188
972.4  15195
972.2  15185
972  15077.813
971.8  15100.938
971.6  15139.688
971.4  14959.375
971.2  15173.75
971  15143.125
970.8  15106.25
970.6  15140.938
970.4  15075.625
970.2  15258.125
970  15184.375
969.8  15079.375
969.6  15011.563
969.4  15119.063
969.2  15207.188
969  15190.313
968.8  15135
968.6  15088.75
968.4  15246.25
968.2  15235
968  15369.688
967.8  15435
967.6  15347.5
967.4  15235.625
967.2  15351.875
967  15373.125
966.8  15228.75
966.6  15400.938
966.4  15486.875
966.2  15520
966  15375
965.8  15628.438
965.6  15495.313
965.4  15620.938
965.2  15647.813
965  15689.375
964.8  15656.875
964.6  15649.063
964.4  15572.188
964.2  15515.625
964  15507.188
963.8  15395
963.6  15399.063
963.4  15259.063
963.2  15320.313
963  15312.813
962.8  15142.5
962.6  15182.813
962.4  15115.625
962.2  15028.125
962  15173.125
961.8  15185.938
961.6  15192.188
961.4  15198.438
961.2  15145.938
961  15122.813
960.8  15129.063
960.6  15281.25
960.4  15255
960.2  15320.625
960  15134.063
959.8  15376.25
959.6  15246.563
959.4  15222.813
959.2  15257.813
959  15435.625
958.8  15334.375
958.6  15427.5
958.4  15316.563
958.2  15545.938
958  15457.813
957.8  15557.5
957.6  15525.313
957.4  15561.875
957.2  15759.688
957  15870.625
956.8  15945.313
956.6  16092.813
956.4  16343.438
956.2  16265.313
956  16509.063
955.8  16597.5
955.6  17008.438
955.4  17317.5
955.2  17723.75
955  18125.313
954.8  18581.563
954.6  19330
954.4  20217.813
954.2  21163.438
954  22443.438
953.8  23924.688
953.6  25588.438
953.4  27375.938
953.2  28696.563
953  29786.875
952.8  30535.625
952.6  30269.063
952.4  29759.063
952.2  28340
952  26770.625
951.8  24736.875
951.6  22859.688
951.4  21252.188
951.2  19810.938
951  18520
950.8  17775.313
950.6  17011.25
950.4  16576.563
950.2  16166.563
950  15766.875
949.8  15620.313
949.6  15209.063
949.4  15097.813
949.2  14924.063
949  14654.063
948.8  14760.938
948.6  14484.688
948.4  14530.313
948.2  14477.5
948  14524.688
947.8  14437.813
947.6  14349.375
947.4  14350.313
947.2  14458.75
947  14415.938
946.8  14295.938
946.6  14401.25
946.4  14254.063
946.2  14297.813
946  14293.125
945.8  14287.5
945.6  14147.188
945.4  14107.813
945.2  14093.125
945  14053.75
944.8  14190.625
944.6  13991.875
944.4  14120
944.2  14209.688
944  14246.563
943.8  14192.188
943.6  14253.438
943.4  14373.438
943.2  14506.563
943  14287.188
942.8  14350.625
942.6  14179.375
942.4  14132.813
942.2  13994.063
942  13866.25
941.8  13636.25
941.6  13506.875
941.4  13386.563
941.2  13411.875
941  13271.875
940.8  13276.25
940.6  13093.125
940.4  13042.188
940.2  12991.563
940  12907.188
939.8  12715
939.6  12692.5
939.4  12661.875
939.2  12646.563
939  12554.063
938.8  12541.25
938.6  12476.563
938.4  12577.5
938.2  12517.188
938  12452.813
937.8  12639.063
937.6  12821.25
937.4  12814.688
937.2  12941.25
937  13047.188
936.8  13156.563
936.6  13468.125
936.4  13383.125
936.2  13609.375
936  13680.625
935.8  13944.063
935.6  14150
935.4  14563.125
935.2  15034.688
935  15844.063
934.8  17170.625
934.6  18789.688
934.4  20861.875
934.2  23987.5
934  27651.25
933.8  32261.25
933.6  37330.938
933.4  42765.313
933.2  47332.188
933  50243.125
932.8  50770
932.6  48700.625
932.4  44339.688
932.2  38163.75
932  32290
931.8  26531.875
931.6  22013.125
931.4  18349.375
931.2  15957.5
931  14160.938
930.8  12892.188
930.6  12025.625
930.4  11450.938
930.2  10919.063
930  10495.938
929.8  10281.25
929.6  9998.4375
929.4  9777.5
929.2  9566.875
929  9451.5625
928.8  9462.1875
928.6  9318.125
928.4  9315.9375
928.2  9140
928  8965
927.8  9055.9375
927.6  9005
927.4  8993.4375
927.2  8963.125
927  8857.5
926.8  8828.4375
926.6  8899.375
926.4  8807.8125
926.2  8662.8125
926  8684.375
925.8  8609.6875
925.6  8670
925.4  8593.4375
925.2  8625.9375
925  8719.0625
924.8  8786.5625
924.6  8918.75
924.4  9287.1875
924.2  9492.1875
924  9806.5625
923.8  10116.563
923.6  10407.188
923.4  10756.25
923.2  10948.438
923  10954.375
922.8  10895
922.6  10655.313
922.4  10435.938
922.2  10110.938
922  9913.125
921.8  9710
921.6  9586.875
921.4  9528.75
921.2  9406.25
921  9478.75
920.8  9395.9375
920.6  9057.5
920.4  9025.9375
920.2  8702.1875
920  8496.25
919.8  8358.75
919.6  8174.0625
919.4  8115.625
919.2  8030.3125
919  7901.875
918.8  7816.5625
918.6  7869.375
918.4  7817.5
918.2  7803.4375
918  7742.5
917.8  7825.9375
917.6  7627.5
917.4  7754.375
917.2  7673.4375
917  7640.3125
916.8  7686.875
916.6  7723.125
916.4  7640.3125
916.2  7641.875
916  7597.1875
915.8  7654.0625
915.6  7630
915.4  7581.25
915.2  7626.25
915  7619.6875
914.8  7607.5
914.6  7724.6875
914.4  7676.5625
914.2  7640.3125
914  7671.25
913.8  7704.375
913.6  7652.1875
913.4  7725.3125
913.2  7824.375
913  7769.0625
912.8  7762.5
912.6  7744.375
912.4  7692.8125
912.2  7693.125
912  7680.9375
911.8  7670.625
911.6  7658.125
911.4  7607.1875
911.2  7616.875
911  7664.6875
910.8  7591.875
910.6  7629.0625
910.4  7705.9375
910.2  7543.75
910  7659.0625
909.8  7582.8125
909.6  7655.625
909.4  7652.8125
909.2  7646.875
909  7655.625
908.8  7556.25
908.6  7614.0625
908.4  7517.1875
908.2  7634.6875
908  7610
907.8  7536.25
907.6  7571.875
907.4  7497.5
907.2  7494.0625
907  7515.3125
906.8  7547.1875
906.6  7536.25
906.4  7490
906.2  7479.0625
906  7588.4375
905.8  7450.9375
905.6  7538.4375
905.4  7482.1875
905.2  7464.6875
905  7485.9375
904.8  7501.5625
904.6  7545.625
904.4  7543.4375
904.2  7482.8125
904  7535.9375
903.8  7464.6875
903.6  7481.5625
903.4  7507.1875
903.2  7571.25
903  7490.625
902.8  7510.9375
902.6  7485.3125
902.4  7457.1875
902.2  7465.9375
902  7463.75
901.8  7563.125
901.6  7521.875
901.4  7459.375
901.2  7480.3125
901  7521.875
900.8  7431.5625
900.6  7453.125
900.4  7545.3125
900.2  7399.375
900  7587.5
899.8  7539.0625
899.6  7506.25
899.4  7532.5
899.2  7542.1875
899  7420.625
898.8  7463.125
898.6  7510
898.4  7436.875
898.2  7587.5
898  7496.875
897.8  7493.75
897.6  7493.4375
897.4  7429.375
897.2  7572.8125
897  7484.0625
896.8  7443.125
896.6  7415.9375
896.4  7456.5625
896.2  7539.375
896  7464.6875
895.8  7393.4375
895.6  7450.625
895.4  7517.1875
895.2  7505.625
895  7424.375
894.8  7494.0625
894.6  7489.0625
894.4  7459.6875
894.2  7519.0625
894  7440.9375
893.8  7436.25
893.6  7484.375
893.4  7510.9375
893.2  7495.3125
893  7465.625
892.8  7452.5
892.6  7508.125
892.4  7369.375
892.2  7415.625
892  7480.9375
891.8  7523.125
891.6  7470.9375
891.4  7484.375
891.2  7492.8125
891  7511.5625
890.8  7483.125
890.6  7480
890.4  7403.4375
890.2  7432.1875
890  7446.5625
889.8  7486.25
889.6  7425
889.4  7448.4375
889.2  7508.125
889  7427.8125
888.8  7573.4375
888.6  7366.5625
888.4  7491.5625
888.2  7429.375
888  7475.625
887.8  7491.875
887.6  7483.75
887.4  7491.875
887.2  7499.0625
887  7540
886.8  7445
886.6  7531.25
886.4  7513.4375
886.2  7499.0625
886  7487.1875
885.8  7448.125
885.6  7546.875
885.4  7560
885.2  7544.375
885  7558.125
884.8  7451.5625
884.6  7545.3125
884.4  7485.625
884.2  7609.0625
884  7511.5625
883.8  7583.125
883.6  7642.8125
883.4  7653.125
883.2  7558.125
883  7501.5625
882.8  7599.375
882.6  7595.625
882.4  7648.75
882.2  7524.0625
882  7553.75
881.8  7568.75
881.6  7566.5625
881.4  7520.9375
881.2  7559.6875
881  7600
880.8  7528.4375
880.6  7564.6875
880.4  7468.75
880.2  7526.5625
880  7422.1875
879.8  7446.5625
879.6  7461.875
879.4  7476.25
879.2  7485.625
879  7501.875
878.8  7414.6875
878.6  7415
878.4  7341.875
878.2  7367.1875
878  7368.125
877.8  7382.1875
877.6  7333.4375
877.4  7426.25
877.2  7370.3125
877  7359.6875
876.8  7445.9375
876.6  7392.1875
876.4  7391.5625
876.2  7285
876  7369.6875
875.8  7338.75
875.6  7344.0625
875.4  7384.6875
875.2  7346.5625
875  7304.6875
874.8  7314.0625
874.6  7366.25
874.4  7367.8125
874.2  7368.75
874  7308.125
873.8  7357.1875
873.6  7269.0625
873.4  7344.0625
873.2  7353.125
873  7367.1875
872.8  7305.625
872.6  7369.375
872.4  7338.125
872.2  7397.1875
872  7426.25
871.8  7299.0625
871.6  7390.625
871.4  7366.875
871.2  7363.75
871  7409.0625
870.8  7382.5
870.6  7264.375
870.4  7292.8125
870.2  7419.6875
870  7377.1875
869.8  7402.8125
869.6  7390.625
869.4  7426.25
869.2  7433.4375
869  7463.75
868.8  7359.375
868.6  7358.125
868.4  7345
868.2  7385
868  7336.5625
867.8  7345.9375
867.6  7344.0625
867.4  7472.8125
867.2  7429.0625
867  7447.1875
866.8  7495.9375
866.6  7407.5
866.4  7400.3125
866.2  7475.9375
866  7421.875
865.8  7537.1875
865.6  7551.5625
865.4  7541.25
865.2  7549.375
865  7404.375
864.8  7592.1875
864.6  7532.8125
864.4  7577.8125
864.2  7585.625
864  7583.4375
863.8  7603.75
863.6  7519.0625
863.4  7632.1875
863.2  7493.4375
863  7594.6875
862.8  7543.125
862.6  7614.6875
862.4  7558.4375
862.2  7546.5625
862  7595.625
861.8  7615.625
861.6  7545.3125
861.4  7555.9375
861.2  7520.9375
861  7508.125
860.8  7504.375
860.6  7499.375
860.4  7428.75
860.2  7391.25
860  7311.5625
859.8  7372.5
859.6  7302.5
859.4  7284.375
859.2  7189.0625
859  7177.8125
858.8  7169.0625
858.6  7128.4375
858.4  7220.625
858.2  7243.4375
858  7250.9375
857.8  7247.1875
857.6  7281.25
857.4  7266.25
857.2  7209.0625
857  7132.1875
856.8  7246.25
856.6  7086.25
856.4  7194.6875
856.2  7242.5
856  7165.625
855.8  7187.1875
855.6  7235.625
855.4  7260.3125
855.2  7176.5625
855  7217.1875
854.8  7242.8125
854.6  7211.875
854.4  7141.25
854.2  7205.9375
854  7268.75
853.8  7269.0625
853.6  7221.25
853.4  7220.3125
853.2  7176.875
853  7128.4375
852.8  7205.9375
852.6  7224.0625
852.4  7238.75
852.2  7128.75
852  7125
851.8  7203.4375
851.6  7170.9375
851.4  7229.6875
851.2  7176.875
851  7191.875
850.8  7144.6875
850.6  7230.625
850.4  7238.4375
850.2  7180.625
850  7216.5625
849.8  7269.6875
849.6  7277.8125
849.4  7187.1875
849.2  7226.25
849  7189.6875
848.8  7180.9375
848.6  7209.375
848.4  7195.3125
848.2  7138.4375
848  7275
847.8  7141.25
847.6  7291.25
847.4  7249.0625
847.2  7222.8125
847  7229.6875
846.8  7289.375
846.6  7220.3125
846.4  7202.5
846.2  7205.3125
846  7333.125
845.8  7219.6875
845.6  7142.8125
845.4  7201.5625
845.2  7157.8125
845  7155.625
844.8  7195
844.6  7206.875
844.4  7204.6875
844.2  7211.875
844  7190.625
843.8  7306.875
843.6  7249.375
843.4  7140
843.2  7270
843  7271.5625
842.8  7154.6875
842.6  7230
842.4  7167.8125
842.2  7191.875
842  7302.5
841.8  7265.3125
841.6  7261.25
841.4  7250
841.2  7242.1875
841  7232.5
840.8  7265
840.6  7235
840.4  7166.5625
840.2  7220
840  7223.75
839.8  7257.1875
839.6  7240
839.4  7300.625
839.2  7242.5
839  7184.6875
838.8  7182.5
838.6  7315
838.4  7214.375
838.2  7192.5
838  7244.375
837.8  7237.1875
837.6  7300
837.4  7226.875
837.2  7263.125
837  7301.25
836.8  7224.6875
836.6  7213.4375
836.4  7237.8125
836.2  7252.5
836  7240.625
835.8  7283.4375
835.6  7133.4375
835.4  7188.125
835.2  7224.0625
835  7287.5
834.8  7305.3125
834.6  7268.4375
834.4  7187.1875
834.2  7208.4375
834  7294.6875
833.8  7200.3125
833.6  7269.0625
833.4  7255
833.2  7175
833  7296.875
832.8  7316.25
832.6  7220.9375
832.4  7212.5
832.2  7293.75
832  7233.75
831.8  7244.375
831.6  7293.125
831.4  7362.5
831.2  7120
831  7175.625
830.8  7285.3125
830.6  7218.75
830.4  7220
830.2  7195
830  7335
829.8  7244.6875
829.6  7264.375
829.4  7192.1875
829.2  7317.5
829  7247.5
828.8  7317.1875
828.6  7295.9375
828.4  7204.375
828.2  7328.75
828  7254.6875
827.8  7339.6875
827.6  7179.0625
827.4  7342.5
827.2  7251.25
827  7357.5
826.8  7261.25
826.6  7229.0625
826.4  7325
826.2  7318.4375
826  7334.0625
825.8  7231.25
825.6  7205.625
825.4  7336.875
825.2  7324.6875
825  7372.1875
824.8  7325
824.6  7256.875
824.4  7272.8125
824.2  7359.0625
824  7390.9375
823.8  7251.25
823.6  7280.3125
823.4  7301.875
823.2  7301.5625
823  7295
822.8  7389.0625
822.6  7208.125
822.4  7235.3125
822.2  7357.5
822  7293.125
821.8  7277.5
821.6  7279.375
821.4  7334.375
821.2  7379.6875
821  7215.625
820.8  7407.1875
820.6  7304.375
820.4  7308.4375
820.2  7237.5
820  7218.125
819.8  7308.125
819.6  7248.75
819.4  7239.6875
819.2  7219.0625
819  7340.9375
818.8  7334.6875
818.6  7367.8125
818.4  7328.4375
818.2  7395.9375
818  7308.75
817.8  7291.5625
817.6  7334.0625
817.4  7329.0625
817.2  7331.25
817  7314.0625
816.8  7357.1875
816.6  7274.0625
816.4  7421.875
816.2  7284.0625
816  7372.5
815.8  7400
815.6  7379.375
815.4  7373.4375
815.2  7369.6875
815  7304.0625
814.8  7340.9375
814.6  7404.375
814.4  7324.6875
814.2  7374.375
814  7328.4375
813.8  7456.25
813.6  7358.4375
813.4  7315.9375
813.2  7429.375
813  7401.5625
812.8  7282.1875
812.6  7394.6875
812.4  7377.5
812.2  7389.0625
812  7456.875
811.8  7388.4375
811.6  7400
811.4  7493.125
811.2  7364.375
811  7405
810.8  7437.8125
810.6  7467.5
810.4  7366.25
810.2  7420.9375
810  7494.6875
809.8  7404.0625
809.6  7442.1875
809.4  7427.5
809.2  7478.4375
809  7323.125
808.8  7363.4375
808.6  7372.5
808.4  7408.4375
808.2  7398.125
808  7301.875
807.8  7271.25
807.6  7398.4375
807.4  7365
807.2  7408.125
807  7280
806.8  7312.1875
806.6  7412.8125
806.4  7446.875
806.2  7387.5
806  7402.5
805.8  7301.25
805.6  7350.625
805.4  7315.9375
805.2  7422.8125
805  7414.375
804.8  7350.3125
804.6  7306.875
804.4  7440
804.2  7376.5625
804  7323.125
803.8  7355
803.6  7342.1875
803.4  7444.0625
803.2  7412.8125
803  7379.375
802.8  7345.625
802.6  7434.6875
802.4  7328.75
802.2  7372.8125
802  7383.125
801.8  7363.125
801.6  7441.25
801.4  7317.5
801.2  7360.9375
801  7319.0625
800.8  7426.5625
800.6  7300.625
800.4  7395.9375
800.2  7414.375
800  7473.75
799.8  7339.6875
799.6  7370.3125
799.4  7438.125
799.2  7376.875
799  7381.25
798.8  7421.875
798.6  7358.75
798.4  7478.4375
798.2  7419.6875
798  7351.5625
797.8  7432.5
797.6  7427.8125
797.4  7466.875
797.2  7475
797  7438.4375
796.8  7440.625
796.6  7407.1875
796.4  7420
796.2  7459.375
796  7408.75
795.8  7462.5
795.6  7441.25
795.4  7423.125
795.2  7476.875
795  7459.6875
794.8  7521.875
794.6  7438.125
794.4  7448.75
794.2  7440.625
794  7398.4375
793.8  7335.625
793.6  7508.75
793.4  7444.375
793.2  7505
793  7559.6875
792.8  7461.875
792.6  7437.8125
792.4  7466.25
792.2  7459.0625
792  7529.375
791.8  7505.9375
791.6  7432.1875
791.4  7516.5625
791.2  7537.5
791  7498.125
790.8  7529.375
790.6  7469.6875
790.4  7444.375
790.2  7545.625
790  7495
789.8  7623.4375
789.6  7517.1875
789.4  7536.25
789.2  7555.625
789  7536.875
788.8  7517.5
788.6  7568.125
788.4  7527.1875
788.2  7481.5625
788  7538.4375
787.8  7501.875
787.6  7594.0625
787.4  7620.625
787.2  7579.0625
787  7518.4375
786.8  7601.25
786.6  7640.9375
786.4  7592.5
786.2  7539.6875
786  7572.1875
785.8  7506.5625
785.6  7613.4375
785.4  7605.625
785.2  7493.125
785  7688.4375
784.8  7612.5
784.6  7610.3125
784.4  7604.0625
784.2  7645.625
784  7599.375
783.8  7587.5
783.6  7623.4375
783.4  7648.75
783.2  7607.5
783  7668.75
782.8  7666.5625
782.6  7683.125
782.4  7632.8125
782.2  7695.3125
782  7623.75
781.8  7675
781.6  7670.9375
781.4  7685.9375
781.2  7690.625
781  7689.375
780.8  7749.375
780.6  7622.1875
780.4  7663.4375
780.2  7738.125
780  7727.8125
779.8  7668.125
779.6  7712.5
779.4  7756.25
779.2  7700
779  7769.6875
778.8  7795.625
778.6  7777.8125
778.4  7778.4375
778.2  7768.75
778  7755.3125
777.8  7790.9375
777.6  7795.625
777.4  7769.0625
777.2  7863.125
777  7800.625
776.8  7854.375
776.6  7888.125
776.4  7911.875
776.2  7858.75
776  7809.375
775.8  7769.375
775.6  7856.875
775.4  7892.5
775.2  7800.9375
775  7852.1875
774.8  7907.5
774.6  7908.4375
774.4  7820
774.2  7900
774  7871.875
773.8  7923.75
773.6  7927.8125
773.4  7861.5625
773.2  7931.875
773  7846.5625
772.8  7883.75
772.6  7973.125
772.4  7899.375
772.2  7889.6875
772  7871.875
771.8  7870.625
771.6  8039.375
771.4  7933.75
771.2  7960
771  7905.9375
770.8  7949.6875
770.6  7910.625
770.4  7928.125
770.2  8026.5625
770  8048.4375
769.8  8053.4375
769.6  8089.6875
769.4  8017.8125
769.2  8047.5
769  8061.875
768.8  8091.875
768.6  8063.75
768.4  8019.6875
768.2  7972.5
768  8089.375
767.8  7996.5625
767.6  7943.125
767.4  7901.25
767.2  7815.9375
767  7929.0625
766.8  7810.9375
766.6  7902.8125
766.4  7948.75
766.2  7859.0625
766  7819.6875
765.8  7828.4375
765.6  7804.375
765.4  7717.1875
765.2  7782.8125
765  7720.625
764.8  7772.5
764.6  7729.6875
764.4  7798.75
764.2  7821.875
764  7719.6875
763.8  7846.5625
763.6  7796.25
763.4  7889.0625
763.2  7778.4375
763  7719.6875
762.8  7894.375
762.6  7700.3125
762.4  7819.6875
762.2  7878.125
762  7743.125
761.8  7846.25
761.6  7851.875
761.4  7850
761.2  7943.75
761  7913.75
760.8  7916.875
760.6  7917.8125
760.4  7911.25
760.2  7888.125
760  7858.75
759.8  7999.375
759.6  7977.5
759.4  7933.75
759.2  7924.375
759  7995.625
758.8  7918.125
758.6  8071.5625
758.4  8029.375
758.2  7914.6875
758  8015
757.8  8108.75
757.6  8107.1875
757.4  8090
757.2  8139.375
757  8158.125
756.8  8182.8125
756.6  8176.25
756.4  8042.5
756.2  8176.5625
756  8123.4375
755.8  8153.125
755.6  8075.9375
755.4  8112.8125
755.2  8040
755  8053.125
754.8  8056.25
754.6  8086.25
754.4  8024.0625
754.2  8062.8125
754  7905.3125
753.8  7943.125
753.6  7902.5
753.4  7871.875
753.2  7868.75
753  7936.5625
752.8  7797.1875
752.6  7827.8125
752.4  7756.25
752.2  7952.1875
752  7950.625
751.8  7782.5
751.6  7808.125
751.4  7801.25
751.2  7717.8125
751  7691.5625
750.8  7786.875
750.6  7769.0625
750.4  7833.125
750.2  7876.25
750  7884.375
749.8  7729.375
749.6  7768.75
749.4  7811.875
749.2  7764.6875
749  7853.75
748.8  7724.0625
748.6  7750.9375
748.4  7785.625
748.2  7809.6875
748  7757.1875
747.8  7846.25
747.6  7841.875
747.4  7790.9375
747.2  7830.9375
747  7738.75
746.8  7775.3125
746.6  7791.25
746.4  7783.125
746.2  7710
746  7718.75
745.8  7803.125
745.6  7725.3125
745.4  7826.25
745.2  7860.625
745  7785.625
744.8  7743.125
744.6  7726.5625
744.4  7817.1875
744.2  7780.625
744  7861.25
743.8  7871.5625
743.6  7884.375
743.4  7797.5
743.2  7832.5
743  7802.8125
742.8  7963.4375
742.6  7851.25
742.4  7864.0625
742.2  7946.875
742  7871.5625
741.8  7974.0625
741.6  7925.9375
741.4  7899.6875
741.2  7908.75
741  7889.6875
740.8  7930.9375
740.6  7901.875
740.4  7968.4375
740.2  8050.3125
740  7866.875
739.8  7982.8125
739.6  7995.9375
739.4  7977.8125
739.2  7968.4375
739  8050.625
738.8  8015
738.6  8020.3125
738.4  7969.6875
738.2  8032.8125
738  8067.5
737.8  8073.75
737.6  8115.625
737.4  8045
737.2  8010
737  8021.875
736.8  8157.5
736.6  8056.25
736.4  8099.0625
736.2  8060
736  8115
735.8  8201.875
735.6  8197.8125
735.4  8090.9375
735.2  8138.125
735  8218.4375
734.8  8197.5
734.6  8050
734.4  8140.3125
734.2  8185
734  8174.0625
733.8  8176.875
733.6  8242.1875
733.4  8305.3125
733.2  8300.625
733  8257.8125
732.8  8320
732.6  8313.125
732.4  8305.3125
732.2  8349.0625
732  8347.8125
731.8  8381.25
731.6  8390.3125
731.4  8399.6875
731.2  8439.0625
731  8393.125
730.8  8408.125
730.6  8436.875
730.4  8464.375
730.2  8440.3125
730  8492.1875
729.8  8577.5
729.6  8465
729.4  8573.125
729.2  8570
729  8616.875
728.8  8540
728.6  8538.75
728.4  8588.75
728.2  8500.625
728  8555.625
727.8  8615.625
727.6  8584.375
727.4  8658.4375
727.2  8646.5625
727  8663.4375
726.8  8636.875
726.6  8648.75
726.4  8623.75
726.2  8729.375
726  8645
725.8  8682.8125
725.6  8624.6875
725.4  8625.3125
725.2  8697.1875
725  8667.5
724.8  8804.375
724.6  8730
724.4  8667.1875
724.2  8913.75
724  8802.8125
723.8  8861.25
723.6  8779.0625
723.4  8863.125
723.2  8870.3125
723  8872.8125
722.8  8927.1875
722.6  8937.5
722.4  8980
722.2  9075
722  9165.3125
721.8  9094.0625
721.6  9096.25
721.4  9120
721.2  9056.875
721  9165.625
720.8  9175.3125
720.6  9198.4375
720.4  9163.125
720.2  9284.0625
720  9144.6875
719.8  9340.3125
719.6  9281.875
719.4  9310.3125
719.2  9261.875
719  9323.125
718.8  9300
718.6  9332.1875
718.4  9259.375
718.2  9242.8125
718  9123.75
717.8  9123.125
717.6  9078.75
717.4  9135.625
717.2  8944.0625
717  8932.1875
716.8  8852.8125
716.6  8889.375
716.4  8809.375
716.2  8804.0625
716  8770
715.8  8809.6875
715.6  8689.375
715.4  8680
715.2  8716.5625
715  8766.875
714.8  8724.6875
714.6  8672.8125
714.4  8730.625
714.2  8725.3125
714  8764.0625
713.8  8826.5625
713.6  8745.9375
713.4  8823.4375
713.2  8773.75
713  8771.875
712.8  8899.6875
712.6  8846.5625
712.4  8710.9375
712.2  8730
712  8629.6875
711.8  8714.0625
711.6  8661.5625
711.4  8645.9375
711.2  8632.5
711  8419.375
710.8  8440
710.6  8356.5625
710.4  8276.25
710.2  8231.5625
710  8143.125
709.8  8108.75
709.6  7860.3125
709.4  7792.8125
709.2  7762.5
709  7672.1875
708.8  7522.8125
708.6  7404.6875
708.4  7332.5
708.2  7303.4375
708  7171.25
707.8  7085.9375
707.6  7206.5625
707.4  7093.125
707.2  7067.8125
707  6861.25
706.8  6923.75
706.6  6822.8125
706.4  6873.75
706.2  6793.4375
706  6904.6875
705.8  6845.625
705.6  6733.125
705.4  6797.1875
705.2  6669.375
705  6634.0625
704.8  6671.5625
704.6  6713.4375
704.4  6740.625
704.2  6655.9375
704  6663.75
703.8  6736.25
703.6  6650.9375
703.4  6675.3125
703.2  6592.8125
703  6572.5
702.8  6622.1875
702.6  6678.4375
702.4  6642.5
702.2  6615.625
702  6613.4375
701.8  6584.6875
701.6  6615.625
701.4  6600
701.2  6657.8125
701  6525
700.8  6512.5
700.6  6648.75
700.4  6606.5625
700.2  6602.1875
700  6646.25
699.8  6492.5
699.6  6558.75
699.4  6524.0625
699.2  6535
699  6475.9375
698.8  6533.125
698.6  6630.3125
698.4  6493.75
698.2  6529.0625
698  6540.9375
697.8  6473.125
697.6  6470
697.4  6422.1875
697.2  6481.25
697  6381.875
696.8  6472.1875
696.6  6497.1875
696.4  6476.5625
696.2  6429.0625
696  6292.5
695.8  6389.6875
695.6  6436.25
695.4  6387.5
695.2  6414.0625
695  6394.0625
694.8  6417.1875
694.6  6409.0625
694.4  6468.125
694.2  6372.1875
694  6326.875
693.8  6408.75
693.6  6340
693.4  6353.125
693.2  6392.1875
693  6383.4375
692.8  6324.0625
692.6  6237.1875
692.4  6312.1875
692.2  6328.75
692  6312.1875
691.8  6360
691.6  6256.5625
691.4  6239.0625
691.2  6266.5625
691  6259.6875
690.8  6308.75
690.6  6288.125
690.4  6214.6875
690.2  6289.375
690  6339.375
689.8  6245.9375
689.6  6267.8125
689.4  6367.5
689.2  6305.625
689  6280.3125
688.8  6388.125
688.6  6296.25
688.4  6325
688.2  6291.875
688  6195.3125
687.8  6230.3125
687.6  6221.25
687.4  6198.4375
687.2  6104.6875
687  6135
686.8  6078.4375
686.6  6063.4375
686.4  5997.8125
686.2  5953.125
686  5974.0625
685.8  5967.8125
685.6  6005
685.4  5955
685.2  5970
685  5975.3125
684.8  6028.4375
684.6  5895.9375
684.4  5952.5
684.2  5913.75
684  5890
683.8  5865.9375
683.6  5951.25
683.4  5870.3125
683.2  5957.8125
683  5943.4375
682.8  5924.375
682.6  5997.1875
682.4  5898.75
682.2  5920.9375
682  5850.625
681.8  5942.8125
681.6  5920.3125
681.4  5938.75
681.2  5900.9375
681  5915
680.8  5876.5625
680.6  5946.875
680.4  5934.0625
680.2  5950
680  6018.75
679.8  6041.5625
679.6  5932.5
679.4  5941.25
679.2  6003.75
679  5908.4375
678.8  5959.0625
678.6  6065.625
678.4  5914.6875
678.2  6092.1875
678  5958.75
677.8  6069.0625
677.6  5929.375
677.4  6031.5625
677.2  6015.625
677  6071.5625
676.8  6011.25
676.6  6030.625
676.4  6078.125
676.2  6046.5625
676  6176.5625
675.8  6115.9375
675.6  6128.4375
675.4  6117.1875
675.2  6060.625
675  6077.1875
674.8  6126.25
674.6  6125
674.4  6108.4375
674.2  6099.0625
674  6152.5
673.8  6170.9375
673.6  6195.9375
673.4  6097.8125
673.2  6158.75
673  6180.9375
672.8  6214.375
672.6  6208.75
672.4  6190
672.2  6245.9375
672  6129.0625
671.8  6109.375
671.6  6234.6875
671.4  6150.625
671.2  6235.3125
671  6175.3125
670.8  6281.875
670.6  6226.25
670.4  6230.3125
670.2  6399.0625
670  6319.6875
669.8  6226.25
669.6  6289.375
669.4  6261.25
669.2  6284.6875
669  6336.875
668.8  6396.25
668.6  6229.375
668.4  6375.3125
668.2  6392.5
668  6460.3125
667.8  6331.25
667.6  6378.75
667.4  6432.8125
667.2  6403.4375
667  6448.4375
666.8  6468.125
666.6  6422.1875
666.4  6520.3125
666.2  6506.5625
666  6475
665.8  6414.0625
665.6  6475.3125
665.4  6511.5625
665.2  6385
665  6431.25
664.8  6440
664.6  6540.3125
664.4  6535.9375
664.2  6507.1875
664  6556.5625
663.8  6451.875
663.6  6547.8125
663.4  6477.8125
663.2  6589.0625
663  6543.4375
662.8  6584.0625
662.6  6567.1875
662.4  6632.5
662.2  6621.5625
662  6583.125
661.8  6548.4375
661.6  6583.125
661.4  6622.5
661.2  6682.1875
661  6600.3125
660.8  6623.125
660.6  6722.1875
660.4  6652.1875
660.2  6749.375
660  6804.375
659.8  6760
659.6  6810.3125
659.4  6788.4375
659.2  6830.625
659  6835.9375
658.8  6916.5625
658.6  7000.625
658.4  7020
658.2  7029.6875
658  7125
657.8  7126.875
657.6  7181.875
657.4  7231.875
657.2  7227.8125
657  7304.375
656.8  7331.25
656.6  7306.875
656.4  7368.4375
656.2  7319.375
656  7328.125
655.8  7461.875
655.6  7415
655.4  7375.9375
655.2  7395.9375
655  7397.5
654.8  7428.4375
654.6  7477.5
654.4  7430.9375
654.2  7492.8125
654  7448.125
653.8  7331.25
653.6  7393.4375
653.4  7374.0625
653.2  7397.1875
653  7342.5
652.8  7493.125
652.6  7535.625
652.4  7560
652.2  7525.9375
652  7491.875
651.8  7456.25
651.6  7545.9375
651.4  7652.5
651.2  7615.9375
651  7659.375
650.8  7795.625
650.6  7788.125
650.4  7782.8125
650.2  7938.4375
650  8029.0625
649.8  8117.8125
649.6  8283.4375
649.4  8443.4375
649.2  8567.1875
649  8777.5
648.8  8905.3125
648.6  9058.125
648.4  9214.6875
648.2  9413.75
648  9485.3125
647.8  9523.125
647.6  9500
647.4  9438.125
647.2  9294.6875
647  9105.3125
646.8  8885.9375
646.6  8675.3125
646.4  8525.625
646.2  8288.75
646  8084.375
645.8  7891.875
645.6  7610
645.4  7547.5
645.2  7391.25
645  7255.625
644.8  7230.625
644.6  7170.625
644.4  7060.9375
644.2  6935.3125
644  6970
643.8  6955.625
643.6  6977.1875
643.4  6889.0625
643.2  6866.875
643  6926.5625
642.8  6852.5
642.6  6844.6875
642.4  6840.3125
642.2  6892.8125
642  6889.6875
641.8  6847.8125
641.6  6987.8125
641.4  7061.875
641.2  7085.3125
641  7178.75
640.8  7231.875
640.6  7302.1875
640.4  7434.375
640.2  7447.1875
640  7479.6875
639.8  7417.8125
639.6  7429.0625
639.4  7348.4375
639.2  7279.375
639  7197.8125
638.8  7003.125
638.6  6894.6875
638.4  6660
638.2  6595.3125
638  6444.0625
637.8  6306.875
637.6  6175.3125
637.4  6125
637.2  5977.5
637  5911.875
636.8  5833.75
636.6  5835.3125
636.4  5824.0625
636.2  5727.5
636  5699.0625
635.8  5562.1875
635.6  5588.4375
635.4  5459.375
635.2  5408.75
635  5286.5625
634.8  5245.3125
634.6  5180.625
634.4  5223.75
634.2  5195
634  5102.8125
633.8  5073.4375
633.6  5043.125
633.4  5080.9375
633.2  4998.4375
633  4898.75
632.8  4979.375
632.6  4896.5625
632.4  4915.9375
632.2  4893.75
632  4832.8125
631.8  4895
631.6  4840
631.4  4844.6875
631.2  4932.5
631  4892.8125
630.8  4848.4375
630.6  4808.75
630.4  4852.8125
630.2  4817.5
630  4813.75
629.8  4930.9375
629.6  4795.3125
629.4  4833.75
629.2  4880.3125
629  4904.375
628.8  4928.125
628.6  4892.8125
628.4  4891.875
628.2  4888.4375
628  4901.25
627.8  4869.375
627.6  4876.875
627.4  4810
627.2  4751.5625
627  4760.3125
626.8  4667.5
626.6  4614.0625
626.4  4593.75
626.2  4554.375
626  4512.1875
625.8  4452.5
625.6  4427.1875
625.4  4417.5
625.2  4413.75
625  4353.4375
624.8  4330
624.6  4274.375
624.4  4249.6875
624.2  4259.375
624  4192.5
623.8  4245.9375
623.6  4177.1875
623.4  4160.9375
623.2  4184.6875
623  4171.25
622.8  4125.9375
622.6  4140.9375
622.4  4117.5
622.2  4150.625
622  4155.3125
621.8  4090.3125
621.6  4138.4375
621.4  4114.6875
621.2  4115.9375
621  4149.6875
620.8  4166.25
620.6  4084.0625
620.4  4142.1875
620.2  4040.625
620  4055.3125
619.8  4031.875
619.6  4003.125
619.4  3942.5
619.2  3977.8125
619  3959.375
618.8  3958.4375
618.6  3936.25
618.4  3850.3125
618.2  3895.9375
618  3942.1875
617.8  3940
617.6  3929.6875
617.4  3887.8125
617.2  3845
617  3848.75
616.8  3786.25
616.6  3785
616.4  3817.5
616.2  3796.25
616  3784.375
615.8  3796.875
615.6  3802.5
615.4  3771.25
615.2  3765.9375
615  3812.5
614.8  3813.4375
614.6  3777.8125
614.4  3713.75
614.2  3842.8125
614  3780.625
613.8  3680.9375
613.6  3773.4375
613.4  3723.125
613.2  3762.5
613  3777.5
612.8  3738.4375
612.6  3778.4375
612.4  3744.0625
612.2  3801.875
612  3805
611.8  3820.9375
611.6  3800.625
611.4  3810
611.2  3793.125
611  3803.4375
610.8  3769.375
610.6  3805
610.4  3790.625
610.2  3769.6875
610  3754.6875
609.8  3830
609.6  3855
609.4  3779.375
609.2  3865
609  3837.1875
608.8  3818.125
608.6  3809.0625
608.4  3849.6875
608.2  3788.4375
608  3824.6875
607.8  3893.75
607.6  3854.375
607.4  3856.875
607.2  3820.625
607  3876.5625
606.8  3841.875
606.6  3910.3125
606.4  3870
606.2  3958.125
606  3910.9375
605.8  3918.125
605.6  3864.375
605.4  3904.0625
605.2  3961.25
605  3892.8125
604.8  3901.25
604.6  3899.375
604.4  3966.25
604.2  3921.875
604  3869.375
603.8  3918.125
603.6  3940.9375
603.4  3934.6875
603.2  3987.1875
603  3940.3125
602.8  4023.4375
602.6  4043.125
602.4  3978.4375
602.2  3975
602  3962.8125
601.8  4024.6875
601.6  3921.5625
601.4  3960.625
601.2  4011.5625
601  4051.875
600.8  4083.125
600.6  4084.0625
600.4  4034.0625
600.2  4040.9375
600  4044.6875
599.8  4067.8125
599.6  4103.4375
599.4  4097.5
599.2  4085.625
599  4112.8125
598.8  4075.9375
598.6  4089.375
598.4  4073.75
598.2  4092.8125
598  4131.25
597.8  4145
597.6  4133.75
597.4  4100.3125
597.2  4183.75
597  4163.125
596.8  4205.9375
596.6  4167.1875
596.4  4202.8125
596.2  4204.6875
596  4241.875
595.8  4250.3125
595.6  4287.5
595.4  4255
595.2  4215.3125
595  4275
594.8  4322.5
594.6  4272.1875
594.4  4328.4375
594.2  4344.6875
594  4279.0625
593.8  4339.0625
593.6  4267.8125
593.4  4384.375
593.2  4355.9375
593  4304.0625
592.8  4311.5625
592.6  4281.25
592.4  4383.4375
592.2  4402.1875
592  4354.6875
591.8  4363.125
591.6  4375
591.4  4370.9375
591.2  4400.9375
591  4424.375
590.8  4460
590.6  4427.8125
590.4  4489.375
590.2  4393.125
590  4427.8125
589.8  4423.75
589.6  4415.625
589.4  4433.75
589.2  4491.25
589  4465.3125
588.8  4497.1875
588.6  4555.625
588.4  4483.75
588.2  4528.125
588  4525
587.8  4527.1875
587.6  4548.4375
587.4  4573.125
587.2  4601.5625
587  4567.5
586.8  4611.875
586.6  4545.3125
586.4  4604.375
586.2  4671.5625
586  4646.875
585.8  4634.0625
585.6  4635.625
585.4  4621.5625
585.2  4594.6875
585  4690.3125
584.8  4691.5625
584.6  4708.75
584.4  4710.9375
584.2  4701.5625
584  4761.5625
583.8  4744.0625
583.6  4716.25
583.4  4784.0625
583.2  4747.1875
583  4691.875
582.8  4695.625
582.6  4800
582.4  4710.625
582.2  4785.9375
582  4804.375
581.8  4779.375
581.6  4828.75
581.4  4880.3125
581.2  4912.8125
581  4925
580.8  5008.125
580.6  4970.3125
580.4  5023.4375
580.2  5060.625
580  5075.9375
579.8  5168.4375
579.6  5202.1875
579.4  5181.25
579.2  5217.1875
579  5254.6875
578.8  5365
578.6  5350.625
578.4  5337.1875
578.2  5345.9375
578  5430.3125
577.8  5507.8125
577.6  5479.375
577.4  5486.25
577.2  5543.4375
577  5590.3125
576.8  5620.9375
576.6  5641.5625
576.4  5768.4375
576.2  5755
576  5800
575.8  5852.1875
575.6  5881.25
575.4  5822.5
575.2  5833.125
575  5965
574.8  6014.0625
574.6  6075.625
574.4  6169.6875
574.2  6420.9375
574  6541.5625
573.8  6630.9375
573.6  6840
573.4  6993.4375
573.2  7161.25
573  7287.8125
572.8  7328.75
572.6  7421.25
572.4  7456.5625
572.2  7452.8125
572  7411.875
571.8  7323.75
571.6  7306.5625
571.4  7349.375
571.2  7480
571  7563.75
570.8  7804.0625
570.6  7862.1875
570.4  7954.6875
570.2  7960
570  8011.25
569.8  8167.8125
569.6  8330.9375
569.4  8666.5625
569.2  9350.625
569  10336.875
568.8  11329.063
568.6  12516.563
568.4  13544.063
568.2  13745.938
568  13853.438
567.8  13083.125
567.6  11819.063
567.4  10484.688
567.2  9272.1875
567  8211.25
566.8  7228.4375
566.6  6767.8125
566.4  6320.9375
566.2  6189.6875
566  5944.0625
565.8  5993.4375
565.6  5996.25
565.4  5918.125
565.2  5680.3125
565  5371.25
564.8  4950.3125
564.6  4602.8125
564.4  4146.875
564.2  3862.8125
564  3589.0625
563.8  3395.9375
563.6  3335.9375
563.4  3204.0625
563.2  3148.75
563  3095
562.8  3150.3125
562.6  3068.125
562.4  3082.1875
562.2  2997.8125
562  2984.0625
561.8  3000.625
561.6  3027.1875
561.4  2996.25
561.2  3012.1875
561  2956.5625
560.8  2868.4375
560.6  2942.1875
560.4  2874.6875
560.2  2896.5625
560  2906.875
559.8  2874.6875
559.6  2864.375
559.4  2863.75
559.2  2802.8125
559  2791.5625
558.8  2745.625
558.6  2715.3125
558.4  2674.0625
558.2  2664.375
558  2716.25
557.8  2617.1875
557.6  2586.25
557.4  2532.8125
557.2  2548.125
557  2484.0625
556.8  2515.3125
556.6  2513.4375
556.4  2422.1875
556.2  2437.8125
556  2395.625
555.8  2415.9375
555.6  2384.6875
555.4  2411.875
555.2  2346.25
555  2417.8125
554.8  2415.3125
554.6  2400.9375
554.4  2431.25
554.2  2521.875
554  2474.375
553.8  2472.5
553.6  2522.5
553.4  2513.4375
553.2  2589.6875
553  2645.625
552.8  2667.1875
552.6  2693.125
552.4  2664.6875
552.2  2744.6875
552  2738.4375
551.8  2761.875
551.6  2688.75
551.4  2587.1875
551.2  2496.25
551  2446.875
550.8  2352.1875
550.6  2307.1875
550.4  2273.125
550.2  2232.8125
550  2276.5625
549.8  2324.6875
549.6  2421.875
549.4  2564.0625
549.2  2714.0625
549  2770.3125
548.8  2974.375
548.6  3068.75
548.4  3119.6875
548.2  3134.0625
548  2978.75
547.8  2964.375
547.6  2734.0625
547.4  2544.6875
547.2  2369.0625
547  2257.1875
546.8  2077.8125
546.6  2042.5
546.4  1960.9375
546.2  1855.9375
546  1856.25
545.8  1773.75
545.6  1696.25
545.4  1685.625
545.2  1653.4375
545  1572.5
544.8  1502.1875
544.6  1504.6875
544.4  1461.25
544.2  1429.6875
544  1388.125
543.8  1374.6875
543.6  1359.375
543.4  1323.75
543.2  1337.8125
543  1294.375
542.8  1282.5
542.6  1295
542.4  1282.5
542.2  1314.375
542  1327.5
541.8  1277.8125
541.6  1283.4375
541.4  1255.9375
541.2  1270.3125
541  1263.125
540.8  1247.1875
540.6  1248.4375
540.4  1211.5625
540.2  1196.25
540  1197.8125
539.8  1209.6875
539.6  1198.75
539.4  1209.6875
539.2  1136.875
539  1186.25
538.8  1153.125
538.6  1148.125
538.4  1132.1875
538.2  1156.875
538  1131.5625
537.8  1123.4375
537.6  1091.25
537.4  1137.5
537.2  1108.75
537  1086.5625
536.8  1133.75
536.6  1105.3125
536.4  1068.125
536.2  1072.1875
536  1078.125
535.8  1097.5
535.6  1086.875
535.4  1077.1875
535.2  1081.875
535  1095.625
534.8  1071.875
534.6  1091.5625
534.4  1077.5
534.2  1068.75
534  1051.5625
533.8  1025.625
533.6  1060.3125
533.4  1064.375
533.2  1060.9375
533  1055.625
532.8  1050.9375
532.6  1086.25
532.4  1057.1875
532.2  1065.625
532  1044.6875
531.8  1018.4375
531.6  1064.0625
531.4  1062.5
531.2  1027.8125
531  1013.75
530.8  1069.375
530.6  1068.75
530.4  1043.4375
530.2  1045.3125
530  1018.4375
529.8  1054.0625
529.6  1039.375
529.4  1030.9375
529.2  1044.375
529  1056.25
528.8  1028.4375
528.6  1017.5
528.4  1019.375
528.2  1005
528  1029.375
527.8  1021.25
527.6  1030.9375
527.4  1024.0625
527.2  1050.9375
527  1059.375
526.8  1032.5
526.6  1011.5625
526.4  1045.3125
526.2  1016.25
526  1010.3125
525.8  1059.6875
525.6  991.25
525.4  1016.25
525.2  1024.375
525  1017.8125
524.8  1049.6875
524.6  1021.875
524.4  1007.1875
524.2  1001.875
524  1039.0625
523.8  1018.75
523.6  1003.125
523.4  1034.6875
523.2  1002.5
523  1014.0625
522.8  1015.625
522.6  986.25
522.4  1009.6875
522.2  991.875
522  1035.625
521.8  993.75
521.6  999.6875
521.4  975.3125
521.2  997.8125
521  1017.1875
520.8  1023.75
520.6  1015.9375
520.4  1004.6875
520.2  1033.125
520  964.0625
519.8  1014.375
519.6  960.625
519.4  1013.4375
519.2  983.125
519  973.125
518.8  988.4375
518.6  990.9375
518.4  1011.875
518.2  959.6875
518  1003.75
517.8  968.75
517.6  966.875
517.4  975
517.2  994.6875
517  1005
516.8  980
516.6  986.25
516.4  1005
516.2  966.5625
516  974.0625
515.8  958.4375
515.6  993.75
515.4  982.1875
515.2  961.25
515  980.3125
514.8  966.5625
514.6  966.875
514.4  990.625
514.2  985.3125
514  960.625
513.8  997.8125
513.6  1006.25
513.4  966.5625
513.2  970
513  956.25
512.8  980.9375
512.6  953.4375
512.4  968.4375
512.2  956.5625
512  965.625
511.8  962.1875
511.6  994.6875
511.4  995.3125
511.2  995.3125
511  977.5
510.8  944.6875
510.6  962.1875
510.4  966.25
510.2  937.8125
510  942.8125
509.8  948.125
509.6  1009.375
509.4  985.9375
509.2  955.3125
509  974.6875
508.8  963.4375
508.6  973.125
508.4  986.25
508.2  969.6875
508  951.5625
507.8  952.8125
507.6  944.0625
507.4  953.75
507.2  982.1875
507  979.0625
506.8  945.625
506.6  964.6875
506.4  972.8125
506.2  960
506  973.125
505.8  980.3125
505.6  960.3125
505.4  924.6875
505.2  996.5625
505  930.3125
504.8  954.0625
504.6  964.6875
504.4  957.8125
504.2  980
504  936.5625
503.8  971.875
503.6  959.0625
503.4  953.125
503.2  988.4375
503  933.4375
502.8  964.0625
502.6  968.75
502.4  963.75
502.2  960.9375
502  953.125
501.8  959.0625
501.6  964.375
501.4  965.3125
501.2  958.125
501  959.0625
500.8  994.6875
500.6  940.9375
500.4  973.75
500.2  955.625
500  938.75
499.8  948.75
499.6  968.75
499.4  953.4375
499.2  963.125
499  946.875
498.8  958.75
498.6  974.0625
498.4  954.375
498.2  960.625
498  929.375
497.8  951.25
497.6  950.625
497.4  960.9375
497.2  951.875
497  942.5
496.8  943.75
496.6  960
496.4  944.0625
496.2  914.375
496  935.625
495.8  913.4375
495.6  965.3125
495.4  959.375
495.2  1011.25
495  949.6875
494.8  948.4375
494.6  930.9375
494.4  935.3125
494.2  950.3125
494  957.8125
493.8  956.5625
493.6  971.5625
493.4  996.875
493.2  1000
493  935.9375
492.8  943.4375
492.6  952.1875
492.4  929.0625
492.2  960
492  950.3125
491.8  975.625
491.6  970.9375
491.4  944.6875
491.2  924.0625
491  926.875
490.8  935.9375
490.6  932.8125
490.4  984.0625
490.2  917.5
490  997.5
489.8  960.9375
489.6  943.125
489.4  917.5
489.2  967.1875
489  977.8125
488.8  929.375
488.6  970.9375
488.4  944.0625
488.2  940.625
488  943.75
487.8  932.1875
487.6  956.875
487.4  961.5625
487.2  964.375
487  949.0625
486.8  943.75
486.6  951.5625
486.4  970.625
486.2  929.0625
486  937.1875
485.8  978.75
485.6  969.375
485.4  935.625
485.2  958.4375
485  967.1875
484.8  944.6875
484.6  970
484.4  967.8125
484.2  952.5
484  941.5625
483.8  938.125
483.6  935.9375
483.4  940.9375
483.2  933.75
483  949.0625
482.8  956.25
482.6  963.4375
482.4  947.5
482.2  954.0625
482  968.4375
481.8  926.5625
481.6  950.9375
481.4  934.375
481.2  966.875
481  975.9375
480.8  931.5625
480.6  951.875
480.4  941.5625
480.2  956.5625
480  938.125
479.8  927.8125
479.6  924.0625
479.4  932.1875
479.2  910.9375
479  931.875
478.8  928.4375
478.6  928.75
478.4  946.875
478.2  955.3125
478  932.1875
477.8  935
477.6  925.9375
477.4  919.0625
477.2  935
477  936.25
476.8  928.125
476.6  935
476.4  940.625
476.2  950.9375
476  914.0625
475.8  913.4375
475.6  950.625
475.4  949.6875
475.2  946.25
475  933.4375
474.8  948.75
474.6  927.5
474.4  906.25
474.2  966.875
474  925
473.8  929.0625
473.6  944.6875
473.4  903.4375
473.2  929.0625
473  920.3125
472.8  937.1875
472.6  960.3125
472.4  910.625
472.2  927.1875
472  935.625
471.8  939.6875
471.6  971.25
471.4  920.625
471.2  945.3125
471  921.25
470.8  916.25
470.6  939.375
470.4  931.875
470.2  940.625
470  936.5625
469.8  939.0625
469.6  932.8125
469.4  923.75
469.2  941.5625
469  914.6875
468.8  926.25
468.6  920.625
468.4  938.125
468.2  934.375
468  961.5625
467.8  933.4375
467.6  929.375
467.4  932.8125
467.2  941.875
467  942.8125
466.8  893.75
466.6  916.875
466.4  923.75
466.2  968.75
466  953.75
465.8  939.375
465.6  960
465.4  928.125
465.2  965.3125
465  931.25
464.8  922.8125
464.6  949.6875
464.4  918.125
464.2  944.375
464  993.75
463.8  948.125
463.6  946.5625
463.4  910
463.2  941.5625
463  940
462.8  921.5625
462.6  937.8125
462.4  929.0625
462.2  935
462  954.0625
461.8  942.5
461.6  958.75
461.4  948.75
461.2  940.625
461  959.375
460.8  902.1875
460.6  922.8125
460.4  945.9375
460.2  970
460  917.5
459.8  943.75
459.6  907.1875
459.4  903.125
459.2  917.5
459  918.125
458.8  926.25
458.6  910.9375
458.4  920.9375
458.2  923.75
458  939.0625
457.8  920.3125
457.6  915
457.4  919.6875
457.2  908.4375
457  933.75
456.8  935.9375
456.6  952.8125
456.4  897.8125
456.2  939.0625
456  937.8125
455.8  959.375
455.6  916.5625
455.4  937.8125
455.2  937.1875
455  939.6875
454.8  907.8125
454.6  922.1875
454.4  937.1875
454.2  896.5625
454  950.9375
453.8  944.6875
453.6  948.125
453.4  925.9375
453.2  922.8125
453  930
452.8  926.875
452.6  915.625
452.4  923.125
452.2  911.25
452  953.125
451.8  967.8125
451.6  927.1875
451.4  939.6875
451.2  925.9375
451  907.1875
450.8  908.125
450.6  909.6875
450.4  911.875
450.2  939.6875
450  940.625
449.8  935.9375
449.6  908.75
449.4  959.6875
449.2  886.5625
449  911.875
448.8  940.3125
448.6  912.1875
448.4  929.375
448.2  908.125
448  956.5625
447.8  935.9375
447.6  912.5
447.4  962.1875
447.2  920.625
447  911.875
446.8  906.875
446.6  916.875
446.4  944.0625
446.2  918.125
446  899.0625
445.8  935
445.6  915.9375
445.4  930
445.2  958.125
445  917.8125
444.8  951.5625
444.6  919.375
444.4  954.375
444.2  932.1875
444  948.75
443.8  931.5625
443.6  910
443.4  902.1875
443.2  945.9375
443  940
442.8  908.125
442.6  948.75
442.4  976.25
442.2  941.875
442  948.4375
441.8  934.0625
441.6  954.0625
441.4  920.625
441.2  957.1875
441  935.625
440.8  913.4375
440.6  922.1875
440.4  925.3125
440.2  880.625
440  922.8125
439.8  935
439.6  945.625
439.4  926.25
439.2  905.625
439  930.3125
438.8  938.4375
438.6  921.25
438.4  939.375
438.2  908.4375
438  959.375
437.8  931.25
437.6  910.3125
437.4  921.875
437.2  911.5625
437  936.5625
436.8  925
436.6  930.9375
436.4  949.6875
436.2  927.8125
436  929.0625
435.8  929.0625
435.6  939.6875
435.4  931.25
435.2  937.8125
435  915.3125
434.8  924.375
434.6  911.25
434.4  927.5
434.2  961.5625
434  917.5
433.8  922.8125
433.6  934.375
433.4  937.1875
433.2  891.875
433  945.625
432.8  930.3125
432.6  954.375
432.4  915
432.2  920.625
432  931.5625
431.8  900
431.6  947.5
431.4  942.5
431.2  923.4375
431  925.9375
430.8  921.875
430.6  933.4375
430.4  912.8125
430.2  947.8125
430  948.125
429.8  930
429.6  940.3125
429.4  936.875
429.2  935.9375
429  942.8125
428.8  936.25
428.6  936.25
428.4  919.0625
428.2  958.4375
428  924.6875
427.8  976.875
427.6  947.8125
427.4  924.0625
427.2  916.875
427  957.1875
426.8  906.25
426.6  926.25
426.4  905
426.2  931.25
426  981.875
425.8  911.5625
425.6  914.375
425.4  934.6875
425.2  965.9375
425  919.375
424.8  928.4375
424.6  956.5625
424.4  935.3125
424.2  913.125
424  941.875
423.8  910
423.6  946.875
423.4  921.5625
423.2  938.4375
423  938.4375
422.8  932.8125
422.6  931.25
422.4  918.125
422.2  973.75
422  919.0625
421.8  941.875
421.6  922.1875
421.4  939.375
421.2  909.375
421  920
420.8  928.125
420.6  934.6875
420.4  933.4375
420.2  947.5
420  942.1875
419.8  943.125
419.6  918.125
419.4  936.25
419.2  948.125
419  949.375
418.8  913.4375
418.6  931.875
418.4  934.6875
418.2  929.0625
418  921.875
417.8  935
417.6  918.75
417.4  919.0625
417.2  935
417  918.75
416.8  904.375
416.6  913.4375
416.4  920.3125
416.2  910.3125
416  950.3125
415.8  928.4375
415.6  988.75
415.4  955.625
415.2  931.5625
415  935.9375
414.8  921.25
414.6  952.1875
414.4  940.3125
414.2  939.0625
414  952.5
413.8  930
413.6  976.875
413.4  920.9375
413.2  926.5625
413  965
412.8  955.9375
412.6  965
412.4  953.125
412.2  940.9375
412  905.9375
411.8  970.9375
411.6  963.75
411.4  973.75
411.2  929.375
411  967.1875
410.8  943.75
410.6  965.9375
410.4  975
410.2  939.375
410  959.0625
409.8  941.5625
409.6  932.5
409.4  911.5625
409.2  928.125
409  947.8125
408.8  941.25
408.6  955
408.4  941.875
408.2  957.8125
408  967.1875
407.8  960.3125
407.6  955.3125
407.4  954.0625
407.2  960.625
407  910.3125
406.8  949.0625
406.6  945
406.4  947.8125
406.2  943.75
406  961.25
405.8  931.5625
405.6  937.5
405.4  943.4375
405.2  974.375
405  1000.9375
404.8  985.9375
404.6  947.8125
404.4  946.875
404.2  990.625
404  945.625
403.8  938.75
403.6  954.375
403.4  945.3125
403.2  1005.3125
403  959.375
402.8  967.8125
402.6  975
402.4  919.375
402.2  951.5625
402  963.75
401.8  954.6875
401.6  959.0625
401.4  955.625
401.2  955.9375
401  920.9375
400.8  931.875
400.6  940.3125
400.4  951.25
400.2  949.6875
400  933.125
399.8  961.25
399.6  923.75
399.4  953.125
399.2  955.9375
399  952.5
398.8  908.125
398.6  924.375
398.4  913.125
398.2  918.75
398  901.5625
397.8  908.75
397.6  910.625
397.4  919.0625
397.2  946.25
397  921.875
396.8  919.375
396.6  919.0625
396.4  927.8125
396.2  917.8125
396  917.1875
395.8  914.6875
395.6  921.5625
395.4  925.625
395.2  888.125
395  909.6875
394.8  927.1875
394.6  935.625
394.4  905.625
394.2  938.125
394  901.5625
393.8  934.0625
393.6  925
393.4  920
393.2  897.5
393  907.1875
392.8  902.1875
392.6  919.6875
392.4  901.25
392.2  930.625
392  905
391.8  929.0625
391.6  896.875
391.4  908.125
391.2  906.25
391  910.625
390.8  905.9375
390.6  901.875
390.4  892.8125
390.2  915.3125
390  909.6875
389.8  919.6875
389.6  874.6875
389.4  897.1875
389.2  1031.5625
389  909.375
388.8  921.5625
388.6  927.8125
388.4  895.625
388.2  915
388  904.375
387.8  908.75
387.6  871.25
387.4  881.5625
387.2  915
387  924.375
386.8  928.125
386.6  930.3125
386.4  863.75
386.2  903.4375
386  906.5625
385.8  891.875
385.6  885.3125
385.4  916.25
385.2  903.4375
385  916.25
384.8  920.9375
384.6  917.1875
384.4  885.3125
384.2  890.625
384  894.6875
383.8  901.875
383.6  899.0625
383.4  887.5
383.2  878.125
383  880
382.8  916.25
382.6  925.9375
382.4  901.25
382.2  875.3125
382  911.5625
381.8  899.6875
381.6  916.25
381.4  901.875
381.2  937.5
381  885.3125
380.8  875.625
380.6  875.3125
380.4  874.375
380.2  902.5
380  901.25
379.8  893.75
379.6  909.375
379.4  879.0625
379.2  915.625
379  881.25
378.8  899.6875
378.6  883.4375
378.4  918.4375
378.2  895
378  903.125
377.8  868.4375
377.6  874.0625
377.4  909.0625
377.2  909.0625
377  895.625
376.8  891.25
376.6  863.75
376.4  888.4375
376.2  912.8125
376  920
375.8  877.8125
375.6  904.0625
375.4  899.0625
375.2  880.9375
375  901.25
374.8  921.25
374.6  900.3125
374.4  891.875
374.2  891.5625
374  855.3125
373.8  888.75
373.6  900.3125
373.4  894.0625
373.2  881.875
373  906.5625
372.8  902.8125
372.6  904.0625
372.4  892.8125
372.2  923.4375
372  905.3125
371.8  872.1875
371.6  880
371.4  912.8125
371.2  897.8125
371  909.6875
370.8  885.3125
370.6  896.25
370.4  862.8125
370.2  912.1875
370  924.0625
369.8  911.875
369.6  907.1875
369.4  931.5625
369.2  895.3125
369  892.5
368.8  898.75
368.6  904.375
368.4  890.625
368.2  869.6875
368  895.625
367.8  859.375
367.6  900.3125
367.4  902.8125
367.2  895.625
367  876.875
366.8  884.375
366.6  893.4375
366.4  897.1875
366.2  906.875
366  1000.3125
365.8  883.4375
365.6  914.375
365.4  894.375
365.2  893.75
365  927.8125
364.8  881.25
364.6  878.125
364.4  897.8125
364.2  901.25
364  876.875
363.8  904.6875
363.6  913.4375
363.4  900
363.2  900.625
363  892.8125
362.8  884.0625
362.6  932.8125
362.4  877.8125
362.2  924.6875
362  933.4375
361.8  889.375
361.6  869.375
361.4  885
361.2  882.5
361  905.9375
360.8  895.9375
360.6  895.3125
360.4  912.8125
360.2  900.3125
360  925
359.8  866.875
359.6  895
359.4  896.25
359.2  915.9375
359  909.375
358.8  906.5625
358.6  886.5625
358.4  891.5625
358.2  874.0625
358  920.625
357.8  908.75
357.6  893.4375
357.4  915
357.2  902.5
357  906.25
356.8  920
356.6  894.375
356.4  871.25
356.2  920.3125
356  942.8125
355.8  900.9375
355.6  920
355.4  912.1875
355.2  916.25
355  916.25
354.8  900.9375
354.6  880.625
354.4  908.75
354.2  930.3125
354  938.125
353.8  932.8125
353.6  923.75
353.4  902.1875
353.2  879.0625
353  890
352.8  869.0625
352.6  901.875
352.4  901.25
352.2  917.5
352  918.125
351.8  898.125
351.6  894.375
351.4  881.5625
351.2  907.1875
351  885
350.8  908.125
350.6  929.6875
350.4  885.3125
350.2  930
350  884.375
349.8  893.4375
349.6  926.25
349.4  891.5625
349.2  907.8125
349  907.8125
348.8  880.625
348.6  901.25
348.4  888.125
348.2  896.5625
348  894.375
347.8  929.375
347.6  893.125
347.4  912.5
347.2  882.5
347  907.1875
346.8  907.5
346.6  909.6875
346.4  894.375
346.2  911.25
346  935.625
345.8  915
345.6  930.625
345.4  905.3125
345.2  946.5625
345  906.25
344.8  899.6875
344.6  864.375
344.4  922.5
344.2  916.5625
344  874.0625
343.8  911.5625
343.6  908.75
343.4  890
343.2  908.125
343  895.625
342.8  892.5
342.6  929.375
342.4  903.75
342.2  893.4375
342  870.625
341.8  887.1875
341.6  912.8125
341.4  910
341.2  915.9375
341  877.8125
340.8  905.625
340.6  881.5625
340.4  904.375
340.2  872.8125
340  890
339.8  867.8125
339.6  869.6875
339.4  890
339.2  912.1875
339  915.9375
338.8  891.875
338.6  891.25
338.4  885
338.2  890.9375
338  898.4375
337.8  896.5625
337.6  881.25
337.4  894.6875
337.2  868.125
337  917.1875
336.8  888.125
336.6  897.8125
336.4  882.8125
336.2  886.875
336  912.5
335.8  915
335.6  909.6875
335.4  934.6875
335.2  892.5
335  929.6875
334.8  906.25
334.6  900.3125
334.4  909.375
334.2  900
334  872.1875
333.8  880.3125
333.6  931.25
333.4  912.8125
333.2  915
333  896.25
332.8  911.25
332.6  901.5625
332.4  896.25
332.2  896.5625
332  915.3125
331.8  902.1875
331.6  906.5625
331.4  905
331.2  894.6875
331  880.625
330.8  915.3125
330.6  914.375
330.4  898.75
330.2  907.8125
330  881.25
329.8  893.125
329.6  910.3125
329.4  900.625
329.2  891.25
329  891.5625
328.8  926.5625
328.6  899.0625
328.4  909.6875
328.2  888.125
328  892.8125
327.8  915
327.6  906.25
327.4  887.1875
327.2  905.625
327  935.625
326.8  868.125
326.6  915.625
326.4  930
326.2  895.625
326  913.75
325.8  902.1875
325.6  883.125
325.4  923.4375
325.2  937.5
325  925.625
324.8  898.75
324.6  918.4375
324.4  918.75
324.2  911.875
324  881.25
323.8  926.25
323.6  925.3125
323.4  917.1875
323.2  895.3125
323  887.5
322.8  918.4375
322.6  896.25
322.4  922.1875
322.2  946.5625
322  948.125
321.8  906.5625
321.6  902.5
321.4  915.3125
321.2  950.9375
321  911.5625
320.8  920.625
320.6  925.3125
320.4  913.75
320.2  915.9375
320  907.1875
319.8  910.9375
319.6  937.5
319.4  918.75
319.2  891.875
319  922.5
318.8  922.8125
318.6  934.375
318.4  907.8125
318.2  902.8125
318  922.1875
317.8  904.6875
317.6  902.8125
317.4  879.375
317.2  884.375
317  900.625
316.8  900.625
316.6  900.3125
316.4  893.125
316.2  879.375
316  910
315.8  918.125
315.6  895.9375
315.4  904.375
315.2  897.8125
315  901.5625
314.8  875
314.6  888.75
314.4  920.9375
314.2  931.875
314  942.8125
313.8  900
313.6  909.0625
313.4  906.25
313.2  923.75
313  889.0625
312.8  882.1875
312.6  889.375
312.4  898.75
312.2  901.875
312  934.6875
311.8  923.75
311.6  910.3125
311.4  900
311.2  928.75
311  921.875
310.8  921.25
310.6  955.9375
310.4  885
310.2  888.75
310  922.8125
309.8  906.25
309.6  912.8125
309.4  929.375
309.2  932.5
309  916.875
308.8  900.625
308.6  921.875
308.4  910.9375
308.2  899.6875
308  921.875
307.8  932.1875
307.6  916.5625
307.4  884.6875
307.2  911.5625
307  919.375
306.8  869.6875
306.6  941.25
306.4  900.3125
306.2  899.6875
306  920.3125
305.8  912.1875
305.6  918.75
305.4  933.75
305.2  891.5625
305  909.6875
304.8  915.3125
304.6  914.6875
304.4  904.0625
304.2  927.5
304  924.6875
303.8  898.125
303.6  890.3125
303.4  914.375
303.2  878.125
303  878.75
302.8  882.8125
302.6  885
302.4  923.125
302.2  876.5625
302  890.625
301.8  906.5625
301.6  898.75
301.4  883.75
301.2  890
301  912.5
300.8  884.0625
300.6  887.5
300.4  905
300.2  919.6875
300  896.5625
299.8  863.75
299.6  910.625
299.4  898.75
299.2  897.8125
299  890
298.8  901.25
298.6  926.25
298.4  847.1875
298.2  897.5
298  890.3125
297.8  907.5
297.6  911.875
297.4  866.25
297.2  904.0625
297  888.4375
296.8  890.625
296.6  886.5625
296.4  907.1875
296.2  898.75
296  919.0625
295.8  907.5
295.6  874.6875
295.4  875
295.2  883.4375
295  895.3125
294.8  920.625
294.6  932.1875
294.4  903.125
294.2  901.875
294  907.1875
293.8  884.6875
293.6  903.125
293.4  893.125
293.2  897.5
293  925
292.8  893.125
292.6  888.4375
292.4  891.25
292.2  861.5625
292  924.0625
291.8  902.8125
291.6  924.0625
291.4  922.8125
291.2  907.1875
291  902.1875
290.8  904.6875
290.6  918.4375
290.4  917.8125
290.2  915.3125
290  904.6875
289.8  918.125
289.6  890.625
289.4  882.5
289.2  923.125
289  920.625
288.8  933.4375
288.6  937.5
288.4  935.625
288.2  892.1875
288  925
287.8  916.5625
287.6  921.5625
287.4  925.9375
287.2  912.8125
287  932.8125
286.8  940
286.6  971.5625
286.4  936.875
286.2  957.5
286  940.3125
285.8  1002.8125
285.6  979.0625
285.4  1013.125
285.2  1052.1875
285  1048.75
284.8  1081.5625
284.6  1099.6875
284.4  1047.8125
284.2  1073.75
284  1000.9375
283.8  1012.1875
283.6  987.8125
283.4  981.25
283.2  938.4375
283  915.625
282.8  897.5
282.6  886.875
282.4  882.5
282.2  887.5
282  890.3125
281.8  918.125
281.6  887.5
281.4  876.25
281.2  880.3125
281  892.8125
280.8  950
280.6  887.8125
280.4  874.0625
280.2  867.5
280  895
279.8  896.25
279.6  890.9375
279.4  900.625
279.2  912.5
279  873.4375
278.8  837.8125
278.6  885.3125
278.4  905.9375
278.2  867.1875
278  890.3125
277.8  875.625
277.6  915
277.4  902.1875
277.2  894.375
277  894.6875
276.8  872.8125
276.6  883.125
276.4  892.1875
276.2  901.5625
276  886.25
275.8  892.5
275.6  937.1875
275.4  883.125
275.2  895.625
275  880.625
274.8  867.8125
274.6  886.875
274.4  870
274.2  891.875
274  867.8125
273.8  890
273.6  922.5
273.4  906.5625
273.2  865
273  898.125
272.8  879.6875
272.6  890.3125
272.4  881.5625
272.2  864.375
272  867.8125
271.8  905.3125
271.6  880
271.4  823.4375
271.2  870
271  885.3125
270.8  875.625
270.6  911.5625
270.4  897.5
270.2  864.6875
270  902.1875
269.8  862.8125
269.6  892.8125
269.4  893.75
269.2  892.5
269  897.1875
268.8  856.25
268.6  884.375
268.4  887.1875
268.2  875.9375
268  906.875
267.8  856.25
267.6  894.0625
267.4  912.8125
267.2  863.125
267  928.125
266.8  846.25
266.6  885.9375
266.4  920.9375
266.2  900.3125
266  879.375
265.8  906.25
265.6  876.875
265.4  876.25
265.2  913.75
265  893.4375
264.8  885.625
264.6  858.125
264.4  891.5625
264.2  898.75
264  889.375
263.8  894.0625
263.6  889.6875
263.4  877.1875
263.2  888.4375
263  895.3125
262.8  871.875
262.6  904.0625
262.4  876.25
262.2  883.75
262  898.125
261.8  895.625
261.6  872.5
261.4  865.9375
261.2  879.375
261  880.625
260.8  880.3125
260.6  888.75
260.4  886.5625
260.2  859.375
260  897.5
259.8  909.6875
259.6  895.3125
259.4  900.3125
259.2  891.5625
259  894.6875
258.8  873.4375
258.6  858.4375
258.4  904.6875
258.2  890.625
258  882.5
257.8  881.875
257.6  881.5625
257.4  883.4375
257.2  895
257  865.9375
256.8  864.6875
256.6  879.0625
256.4  904.0625
256.2  876.875
256  863.75
255.8  901.875
255.6  867.8125
255.4  883.125
255.2  896.875
255  871.5625
254.8  892.5
254.6  883.4375
254.4  879.0625
254.2  852.5
254  864.375
253.8  880.9375
253.6  912.8125
253.4  872.5
253.2  884.375
253  870.3125
252.8  915.9375
252.6  879.6875
252.4  865.625
252.2  871.5625
252  892.8125
251.8  887.5
251.6  901.25
251.4  875
251.2  910
251  905.9375
250.8  910.3125
250.6  895.625
250.4  912.8125
250.2  870.625
250  914.6875
249.8  862.8125
249.6  922.5
249.4  865
249.2  887.1875
249  876.875
248.8  874.0625
248.6  890.3125
248.4  903.75
248.2  894.6875
248  866.875
247.8  883.4375
247.6  904.0625
247.4  890.625
247.2  884.6875
247  865
246.8  875
246.6  891.25
246.4  920.3125
246.2  883.125
246  880.9375
245.8  884.0625
245.6  894.0625
245.4  921.5625
245.2  898.75
245  940.3125
244.8  909.375
244.6  897.5
244.4  853.4375
244.2  927.1875
244  915.9375
243.8  940.3125
243.6  908.75
243.4  933.75
243.2  907.1875
243  930.3125
242.8  904.6875
242.6  900.625
242.4  930.9375
242.2  903.75
242  944.6875
241.8  915.3125
241.6  893.75
241.4  905.9375
241.2  883.75
241  911.5625
240.8  998.4375
240.6  896.25
240.4  928.75
240.2  885
240  901.875
239.8  889.0625
239.6  869.6875
239.4  890.625
239.2  894.375
239  872.5
238.8  914.0625
238.6  886.25
238.4  841.25
238.2  882.8125
238  875.9375
237.8  890.9375
237.6  875.625
237.4  916.875
237.2  896.875
237  889.6875
236.8  885
236.6  917.8125
236.4  915.9375
236.2  887.5
236  907.1875
235.8  914.6875
235.6  886.5625
235.4  889.6875
235.2  881.5625
235  912.8125
234.8  895.9375
234.6  888.75
234.4  897.5
234.2  885
234  898.4375
233.8  890
233.6  914.6875
233.4  924.6875
233.2  870.625
233  859.6875
232.8  890
232.6  914.0625
232.4  886.5625
232.2  914.6875
232  919.6875
231.8  882.5
231.6  915.625
231.4  926.25
231.2  894.0625
231  896.5625
230.8  913.125
230.6  883.125
230.4  879.6875
230.2  884.0625
230  893.4375
229.8  872.5
229.6  913.125
229.4  900
229.2  855
229  895
228.8  896.875
228.6  878.4375
228.4  919.0625
228.2  892.8125
228  884.6875
227.8  941.5625
227.6  886.25
227.4  893.75
227.2  893.75
227  873.125
226.8  905.9375
226.6  899.6875
226.4  885.625
226.2  880.625
226  908.125
225.8  903.125
225.6  890.9375
225.4  894.0625
225.2  841.875
225  851.875
224.8  884.375
224.6  885
224.4  914.6875
224.2  908.125
224  885.625
223.8  898.4375
223.6  869.6875
223.4  880.9375
223.2  875
223  864.6875
222.8  846.25
222.6  892.8125
222.4  861.25
222.2  874.6875
222  879.6875
221.8  893.4375
221.6  911.875
221.4  883.125
221.2  915.3125
221  872.8125
220.8  861.25
220.6  882.8125
220.4  898.75
220.2  880.3125
220  866.5625
219.8  891.25
219.6  870.9375
219.4  892.5
219.2  915.3125
219  925.625
218.8  877.1875
218.6  866.875
218.4  901.5625
218.2  884.0625
218  887.1875
217.8  879.0625
217.6  900.625
217.4  914.375
217.2  870.3125
217  878.125
216.8  906.875
216.6  905
216.4  884.375
216.2  882.5
216  916.5625
215.8  872.1875
215.6  895.3125
215.4  863.4375
215.2  895.625
215  877.1875
214.8  891.875
214.6  878.125
214.4  894.375
214.2  904.375
214  858.75
213.8  900
213.6  852.5
213.4  879.0625
213.2  852.5
213  843.125
212.8  861.25
212.6  883.4375
212.4  873.125
212.2  902.1875
212  870
211.8  889.0625
211.6  920
211.4  860.9375
211.2  899.375
211  862.8125
210.8  859.0625
210.6  893.4375
210.4  885.3125
210.2  879.6875
210  878.4375
209.8  868.125
209.6  881.25
209.4  863.75
209.2  891.875
209  873.4375
208.8  878.75
208.6  891.5625
208.4  914.375
208.2  865.3125
208  901.5625
207.8  875.625
207.6  873.125
207.4  893.4375
207.2  891.25
207  856.25
206.8  902.8125
206.6  870.625
206.4  893.4375
206.2  872.1875
206  897.8125
205.8  865.3125
205.6  875.9375
205.4  892.1875
205.2  893.125
205  881.25
204.8  909.375
204.6  881.25
204.4  854.375
204.2  877.8125
204  851.5625
203.8  869.0625
203.6  885.625
203.4  927.1875
203.2  869.375
203  882.1875
202.8  879.375
202.6  880.3125
202.4  909.375
202.2  893.4375
202  903.4375
201.8  919.0625
201.6  885
201.4  882.1875
201.2  893.4375
201  863.75
200.8  908.75
200.6  862.1875
200.4  887.8125
200.2  885.9375
200  884.6875
199.8  875.625
199.6  882.8125
199.4  900
199.2  901.25
199  913.4375
198.8  878.125
198.6  904.375
198.4  857.8125
198.2  895.9375
198  886.5625
197.8  890.3125
197.6  885
197.4  892.5
197.2  878.125
197  852.1875
196.8  912.1875
196.6  915.9375
196.4  912.5
196.2  914.0625
196  930.625
195.8  911.5625
195.6  861.875
195.4  906.25
195.2  903.75
195  909.375
194.8  877.8125
194.6  912.8125
194.4  893.125
194.2  911.5625
194  890.625
193.8  872.8125
193.6  893.125
193.4  926.875
193.2  883.4375
193  897.8125
192.8  899.0625
192.6  906.25
192.4  890.625
192.2  885.625
192  917.5
191.8  866.5625
191.6  887.1875
191.4  908.125
191.2  906.25
191  877.5
190.8  896.875
190.6  907.5
190.4  891.25
190.2  895.625
190  893.75
189.8  918.4375
189.6  936.5625
189.4  905.9375
189.2  912.8125
189  916.25
188.8  916.5625
188.6  893.125
188.4  914.6875
188.2  900.9375
188  921.5625
187.8  925
187.6  901.5625
187.4  917.8125
187.2  880.3125
187  886.25
186.8  885.625
186.6  912.1875
186.4  890.625
186.2  898.125
186  907.8125
185.8  919.0625
185.6  900.3125
185.4  904.6875
185.2  899.375
185  923.125
184.8  894.0625
184.6  898.4375
184.4  881.875
184.2  904.0625
184  913.75
183.8  912.1875
183.6  923.125
183.4  920.9375
183.2  927.5
183  915.9375
182.8  897.8125
182.6  919.375
182.4  922.5
182.2  921.875
182  929.6875
181.8  940
181.6  941.25
181.4  935.625
181.2  903.75
181  923.75
180.8  946.25
180.6  900
180.4  930.9375
180.2  903.75
180  932.1875
179.8  922.1875
179.6  906.25
179.4  922.1875
179.2  915.9375
179  910.9375
178.8  898.4375
178.6  905.3125
178.4  910.3125
178.2  931.5625
178  913.75
177.8  927.8125
177.6  906.5625
177.4  915
177.2  935.9375
177  912.8125
176.8  932.8125
176.6  924.0625
176.4  942.8125
176.2  939.6875
176  941.875
175.8  936.875
175.6  874.6875
175.4  946.875
175.2  942.5
175  953.125
174.8  927.5
174.6  949.0625
174.4  931.25
174.2  907.5
174  955.3125
173.8  929.375
173.6  955.9375
173.4  921.25
173.2  917.8125
173  913.75
172.8  937.8125
172.6  968.4375
172.4  966.5625
172.2  926.5625
172  912.5
171.8  948.4375
171.6  920.3125
171.4  928.75
171.2  931.25
171  924.6875
170.8  927.1875
170.6  943.4375
170.4  956.875
170.2  937.8125
170  921.25
169.8  959.6875
169.6  955
169.4  949.6875
169.2  955.9375
169  963.125
168.8  947.1875
168.6  924.375
168.4  943.75
168.2  943.75
168  952.8125
167.8  931.25
167.6  952.1875
167.4  940.9375
167.2  934.0625
167  944.0625
166.8  947.8125
166.6  967.5
166.4  898.125
166.2  948.125
166  925.3125
165.8  960
165.6  923.75
165.4  930
165.2  945
165  945.625
164.8  940.3125
164.6  943.75
164.4  948.4375
164.2  958.4375
164  971.5625
163.8  961.875
163.6  941.5625
163.4  940.9375
163.2  961.25
163  914.6875
162.8  935.3125
162.6  956.5625
162.4  948.125
162.2  974.375
162  1095
161.8  945.625
161.6  971.5625
161.4  983.125
161.2  976.5625
161  934.375
160.8  975.625
160.6  940.3125
160.4  919.375
160.2  992.8125
160  933.75
159.8  941.25
159.6  955.3125
159.4  940.9375
159.2  1014.375
159  924.375
158.8  945
158.6  931.875
158.4  965
158.2  931.5625
158  949.6875
157.8  968.75
157.6  956.5625
157.4  962.5
157.2  930.9375
157  950
156.8  972.1875
156.6  956.5625
156.4  960.3125
156.2  987.8125
156  971.875
155.8  957.8125
155.6  965
155.4  998.4375
155.2  943.125
155  965.625
154.8  990.625
154.6  971.875
154.4  1000
154.2  985.9375
154  974.0625
153.8  989.0625
153.6  991.25
153.4  986.5625
153.2  988.75
153  1009.0625
152.8  1000
152.6  955.3125
152.4  1005.9375
152.2  1005.9375
152  1000
151.8  974.0625
151.6  1011.25
151.4  964.375
151.2  1014.6875
151  975.3125
150.8  968.4375
150.6  1021.5625
150.4  991.5625
150.2  1028.125
150  977.5
149.8  961.25
149.6  1030.625
149.4  993.4375
149.2  994.0625
149  982.8125
148.8  1019.6875
148.6  1023.75
148.4  1000.625
148.2  1023.4375
148  1016.5625
147.8  995.9375
147.6  961.5625
147.4  986.25
147.2  1010.625
147  989.0625
146.8  1018.4375
146.6  979.375
146.4  975
146.2  1000
146  1005.3125
145.8  1029.6875
145.6  1009.375
145.4  1037.1875
145.2  1005.3125
145  1010.3125
144.8  1017.8125
144.6  1013.4375
144.4  1023.4375
144.2  1036.25
144  1045.625
143.8  985.3125
143.6  1023.4375
143.4  1036.875
143.2  1025
143  1021.875
142.8  1028.125
142.6  1035.3125
142.4  1028.4375
142.2  1015.625
142  1007.1875
141.8  1049.375
141.6  1062.1875
141.4  1027.1875
141.2  1061.875
141  1006.5625
140.8  1065
140.6  1017.8125
140.4  1040.3125
140.2  1071.25
140  1045
139.8  1058.4375
139.6  1043.75
139.4  1055.625
139.2  1036.5625
139  1022.1875
138.8  1013.125
138.6  1039.6875
138.4  1040.625
138.2  1048.75
138  1048.4375
137.8  1044.6875
137.6  1026.875
137.4  1050.9375
137.2  1074.375
137  1048.4375
136.8  1074.0625
136.6  1048.75
136.4  1062.1875
136.2  1036.5625
136  1045.9375
135.8  1040.9375
135.6  1040.625
135.4  1061.5625
135.2  1103.75
135  1059.375
134.8  1046.25
134.6  1033.75
134.4  1083.75
134.2  1050.625
134  1025.3125
133.8  1071.5625
133.6  1019.0625
133.4  1074.375
133.2  1039.0625
133  1056.875
132.8  1041.5625
132.6  1053.4375
132.4  1066.875
132.2  1046.875
132  1050.9375
131.8  1076.25
131.6  1072.1875
131.4  1039.6875
131.2  1048.75
131  1037.8125
130.8  1033.125
130.6  1051.5625
130.4  1065
130.2  1056.875
130  1043.125
129.8  1070.3125
129.6  1074.375
129.4  1014.375
129.2  1080
129  1078.125
128.8  1045.625
128.6  1073.75
128.4  1047.5
128.2  1115
128  1106.25
127.8  1076.5625
127.6  1083.125
127.4  1086.5625
127.2  1134.375
127  1124.375
126.8  1143.125
126.6  1168.125
126.4  1181.875
126.2  1186.5625
126  1174.6875
125.8  1207.5
125.6  1223.4375
125.4  1211.875
125.2  1295.625
125  1327.8125
124.8  1354.6875
124.6  1408.4375
124.4  1453.4375
124.2  1535
124  1633.75
123.8  1670.9375
123.6  1750.625
123.4  1789.6875
123.2  1895.3125
123  1946.5625
122.8  1945.625
122.6  1971.25
122.4  1930.9375
122.2  1853.125
122  1775.9375
121.8  1690.625
121.6  1597.8125
121.4  1491.25
121.2  1425.9375
121  1370.9375
120.8  1310.625
120.6  1269.0625
120.4  1206.875
120.2  1181.875
120  1080.625
119.8  1109.375
119.6  1110.9375
119.4  1059.0625
119.2  1018.4375
119  1053.75
118.8  1016.875
118.6  1014.6875
118.4  1030.9375
118.2  974.0625
118  1004.375
117.8  949.0625
117.6  960.3125
117.4  949.0625
117.2  976.5625
117  978.75
116.8  968.4375
116.6  993.125
116.4  959.6875
116.2  970
116  981.25
115.8  961.5625
115.6  969.375
115.4  966.875
115.2  968.125
115  983.4375
114.8  945.3125
114.6  954.6875
114.4  952.8125
114.2  947.1875
114  1001.875
113.8  978.75
113.6  1005.3125
113.4  1008.75
113.2  994.375
113  1042.8125
112.8  1026.875
112.6  995
112.4  1010.3125
112.2  1025.3125
112  1019.375
111.8  1028.125
111.6  998.75
111.4  1013.4375
111.2  1019.375
111  1005.625
110.8  987.8125
110.6  966.875
110.4  985.625
110.2  970.3125
110  960.9375
109.8  941.25
109.6  1000.9375
109.4  953.75
109.2  937.8125
109  1008.125
108.8  975
108.6  995
108.4  960.3125
108.2  978.4375
108  954.375
107.8  950.3125
107.6  965.3125
107.4  938.125
107.2  962.5
107  981.875
106.8  963.125
106.6  1005.3125
106.4  960
106.2  961.5625
106  979.375
105.8  987.1875
105.6  970.9375
105.4  971.5625
105.2  973.125
105  995
104.8  985.9375
104.6  988.4375
104.4  972.1875
104.2  995
104  982.5
103.8  956.875
103.6  990
103.4  1006.5625
103.2  1000.9375
103  986.875
102.8  1023.75
102.6  983.4375
102.4  982.8125
102.2  973.4375
102  1035.625
101.8  1003.4375
101.6  995.9375
101.4  991.25
101.2  1001.5625
101  1010
100.8  1006.875
100.6  995.3125
100.4  989.6875
100.2  990.9375
100  1016.25
99.8  990.9375
99.6  1027.5
99.4  996.5625
99.2  1045
99  997.1875
98.8  1009.6875
98.6  987.8125
98.4  1023.125
98.2  1025
98  982.5
97.8  1027.8125
97.6  1013.125
97.4  1012.1875
97.2  1032.1875
97  1022.5
96.8  1057.8125
96.6  1002.5
96.4  1037.5
96.2  1055.3125
96  1025
95.8  1034.6875
95.6  1056.25
95.4  1045.3125
95.2  1041.5625
95  1020
94.8  1016.25
94.6  1030.3125
94.4  1013.75
94.2  1021.875
94  1000
93.8  1017.8125
93.6  1015.9375
93.4  1016.5625
93.2  1004.6875
93  994.6875
92.8  970.625
92.6  995.3125
92.4  1001.5625
92.2  1002.1875
92  960.9375
91.8  947.1875
91.6  1001.25
91.4  959.6875
91.2  966.25
91  928.125
90.8  960.9375
90.6  980.3125
90.4  963.75
90.2  955.625
90  978.125
89.8  979.6875
89.6  959.375
89.4  985
89.2  948.75
89  973.4375
88.8  1003.125
88.6  994.6875
88.4  954.375
88.2  1002.5
88  986.5625
87.8  995
87.6  1011.5625
87.4  980
87.2  1008.125
87  1034.375
86.8  991.25
86.6  989.375
86.4  1007.8125
86.2  1014.375
86  992.1875
85.8  961.875
85.6  991.875
85.4  1015
85.2  985.9375
85  979.375
84.8  984.6875
84.6  1020.625
84.4  995
84.2  974.0625
84  984.6875
83.8  1013.4375
83.6  1016.5625
83.4  1009.0625
83.2  1006.875
83  1028.75
82.8  1030
82.6  1054.375
82.4  1062.5
82.2  1050.625
82  1051.875
81.8  1062.1875
81.6  1081.25
81.4  1079.6875
81.2  1104.375
81  1089.375
80.8  1126.25
80.6  1144.375
80.4  1230
80.2  1255
80  1279.6875
79.8  1337.8125
79.6  1381.5625
79.4  1484.6875
79.2  1554.375
79  1657.1875
78.8  1765.9375
78.6  1830.625
78.4  1968.4375
78.2  2074.0625
78  2137.8125
77.8  2189.375
77.6  2281.25
77.4  2260.625
77.2  2345
77  2365
76.8  2380.9375
76.6  2431.25
76.4  2497.1875
76.2  2547.1875
76  2660.3125
75.8  2722.5
75.6  2725
75.4  2735.9375
75.2  2647.5
75  2583.75
74.8  2464.0625
74.6  2294.6875
74.4  2122.1875
74.2  1915.625
74  1788.4375
73.8  1570.625
73.6  1444.375
73.4  1272.8125
73.2  1188.125
73  1087.8125
72.8  1017.1875
72.6  971.875
72.4  907.1875
72.2  882.5
72  836.25
71.8  785
71.6  796.875
71.4  732.8125
71.2  716.25
71  716.25
70.8  685.9375
70.6  689.6875
70.4  679.375
70.2  660.3125
70  676.25
69.8  632.5
69.6  650.625
69.4  604.6875
69.2  616.875
69  617.5
68.8  668.4375
68.6  634.375
68.4  627.1875
68.2  641.5625
68  631.875
67.8  656.875
67.6  643.4375
67.4  630.9375
67.2  634.375
67  625
66.8  631.875
66.6  668.4375
66.4  660.625
66.2  670.3125
66  675
65.8  677.5
65.6  656.5625
65.4  648.75
65.2  648.4375
65  661.25
64.8  629.6875
64.6  594.375
64.4  607.1875
64.2  578.4375
64  586.5625
63.8  572.8125
63.6  567.8125
63.4  553.75
63.2  516.5625
63  525.625
62.8  512.8125
62.6  498.4375
62.4  488.125
62.2  474.0625
62  473.4375
61.8  497.1875
61.6  451.25
61.4  443.75
61.2  451.5625
61  445.3125
60.8  466.25
60.6  458.4375
60.4  461.5625
60.2  432.5
60  400.625
59.8  444.0625
59.6  419.6875
59.4  421.5625
59.2  442.8125
59  423.75
58.8  421.5625
58.6  413.4375
58.4  413.75
58.2  404.0625
58  432.1875
57.8  413.75
57.6  413.75
57.4  412.8125
57.2  424.375
57  391.875
56.8  418.125
56.6  424.0625
56.4  437.1875
56.2  415
56  420.625
55.8  407.1875
55.6  421.25
55.4  413.4375
55.2  414.0625
55  403.125
54.8  433.125
54.6  432.5
54.4  421.875
54.2  419.375
54  419.375
53.8  419.0625
53.6  428.4375
53.4  413.75
53.2  413.125
53  422.5
52.8  420.9375
52.6  410.3125
52.4  418.125
52.2  407.5
52  402.1875
51.8  415
51.6  424.6875
51.4  408.75
51.2  413.125
51  416.25
50.8  400
50.6  385.3125
50.4  399.0625
50.2  402.8125
50  395.625
49.8  412.1875
49.6  404.375
49.4  393.4375
49.2  393.4375
49  393.4375
48.8  394.0625
48.6  392.1875
48.4  401.25
48.2  387.1875
48  401.25
47.8  410
47.6  394.0625
47.4  394.0625
47.2  374.375
47  383.75
46.8  392.8125
46.6  410.9375
46.4  385
46.2  385.9375
46  370.625
45.8  394.375
45.6  373.125
45.4  377.8125
45.2  396.5625
45  396.875
44.8  373.4375
44.6  384.375
44.4  413.75
44.2  398.125
44  373.75
43.8  386.5625
43.6  399.0625
43.4  382.1875
43.2  414.0625
43  401.875
42.8  392.1875
42.6  391.5625
42.4  383.125
42.2  382.1875
42  386.5625
41.8  389.0625
41.6  378.4375
41.4  399.375
41.2  396.875
41  375.3125
40.8  396.875
40.6  403.125
40.4  395.9375
40.2  394.0625
40  375.9375
39.8  396.25
39.6  395.9375
39.4  391.5625
39.2  386.5625
39  387.8125
38.8  395
38.6  398.4375
38.4  376.875
38.2  400.3125
38  383.4375
37.8  389.6875
37.6  381.875
37.4  403.4375
37.2  395.625
37  406.5625
36.8  388.75
36.6  403.4375
36.4  418.75
36.2  383.4375
36  408.75
35.8  415.9375
35.6  398.125
35.4  411.25
35.2  397.1875
35  405.625
34.8  401.875
34.6  408.4375
34.4  397.8125
34.2  430.625
34  420
33.8  391.875
33.6  408.4375
33.4  414.6875
33.2  398.75
33  416.25
32.8  413.125
32.6  376.25
32.4  414.0625
32.2  409.375
32  395.625
31.8  403.125
31.6  400
31.4  395
31.2  405.625
31  418.4375
30.8  405.625
30.6  415.9375
30.4  398.75
30.2  436.875
30  392.8125
29.8  412.5
29.6  398.75
29.4  425
29.2  416.5625
29  407.1875
28.8  400
28.6  418.75
28.4  416.875
28.2  427.1875
28  412.1875
27.8  423.4375
27.6  420.9375
27.4  413.125
27.2  434.375
27  415.9375
26.8  418.4375
26.6  419.0625
26.4  426.25
26.2  418.75
26  422.8125
25.8  418.125
25.6  439.375
25.4  443.125
25.2  436.5625
25  443.4375
24.8  440.3125
24.6  428.4375
24.4  442.1875
24.2  421.5625
24  420.3125
23.8  436.875
23.6  418.4375
23.4  443.75
23.2  406.5625
23  428.4375
22.8  412.8125
22.6  423.125
22.4  442.5
22.2  431.25
22  424.6875
21.8  415
21.6  406.5625
21.4  394.375
21.2  427.1875
21  424.375
20.8  422.1875
20.6  414.6875
20.4  407.8125
20.2  419.6875
20  404.375
19.8  406.5625
19.6  425.3125
19.4  415.3125
19.2  425
19  420.9375
18.8  402.1875
18.6  423.4375
18.4  421.5625
18.2  445.3125
18  397.8125
17.8  410
17.6  416.5625
17.4  405.9375
17.2  414.6875
17  415
16.8  405
16.6  420.625
16.4  400.9375
16.2  412.8125
16  415.625
15.8  416.25
15.6  433.75
15.4  405.9375
15.2  416.25
15  428.4375
14.8  411.25
14.6  410.9375
14.4  416.5625
14.2  414.375
14  436.875
13.8  422.5
13.6  418.75
13.4  400.625
13.2  404.6875
13  416.5625
12.8  408.4375
12.6  400.3125
12.4  406.5625
12.2  404.375
12  393.125
11.8  422.5
11.6  391.5625
11.4  418.125
11.2  408.125
11  405.3125
10.8  408.125
10.6  397.5
10.4  395.9375
10.2  408.75
10  397.1875
9.8  389.6875
9.6  424.6875
9.4  418.75
9.2  412.1875
9  408.75
8.8  435
8.6  380.625
8.4  409.6875
8.2  424.6875
8  432.5
7.8  448.75
7.6  464.6875
7.4  451.25
7.2  450.9375
7  464.6875
6.8  447.5
6.6  511.25
6.4  554.6875
6.2  561.875
6  584.6875
5.8  627.1875
5.6  688.125
5.4  749.6875
5.2  817.1875
5  856.25
4.8  950.9375
4.6  1007.5
4.4  1078.4375
4.2  1136.875
4  1251.25
3.8  1243.75
3.6  1238.4375
3.4  1277.8125
3.2  1251.875
3  1230.3125
2.8  1171.25
2.6  1152.1875
2.4  976.25
2.2  881.25
2  722.8125
1.8  635.3125
1.6  529.0625
1.4  450.9375
1.2  400.9375
1  375.3125
0.8  369.375
0.6  334.6875
0.4  335
0.2  310.625
-2.2737368e-013  280.625
-0.2  287.5
-0.4  253.4375
-0.6  255.625
-0.8  253.75
-1  250.9375
-1.2  240.3125
-1.4  257.8125
-1.6  252.8125
-1.8  245.3125
-2  244.375
-2.2  245.9375
-2.4  260.3125
-2.6  237.1875
-2.8  254.6875
-3  246.5625
-3.2  252.5
-3.4  249.375
-3.6  256.25
-3.8  251.25
-4  255

