# Created by:        SpecsLab Prodigy, Version 4.60.2-r85849 
#
# XY-Serializer Export Settings:
#   Comment Prefix:           #
#   Output meta data:         yes
#   Energy Axis:              Binding Energy
#   Count Rate:               Counts per Second
#   Separate Scan Data:       no
#   Separate Channel Data:    no
#   External Channel Data:    yes
#   Transmission Function:    no
#   ErrorBar:                 no
#   Operation Results:        yes
#   Time Zone Format:         UTC
#
# Group:             Spectrum Group
#
# Region:            C1s
# Acquisition Date:  09/08/22 09:01:55 UTC
# Analysis Method:   XPS
# Analyzer:          Phoibos 100 R6
# Analyzer Lens:     LargeArea:1.5kV
# Analyzer Slit:     1:0.2x20\B:open
# Scan Mode:         FixedAnalyzerTransmission
# Curves/Scan:       1
# Values/Curve:      151
# Dwell Time:        0.8
# Excitation Energy: 1486.61
# Binding Energy:    295
# Pass Energy:       30
# Bias Voltage:      90
# Detector Voltage:  2600
# Eff. Workfunction: 4.309
# Source:            X-Ray Dummy
# Comment:           
#
# Cycle: 0
# Number of Scans: 6
#
# Cycle: 0, Curve: 0
# Acquisition Date: 09/08/22 09:01:55 UTC
#
# ColumnLabels: energy counts/s
#
295  738.54167
294.9  759.375
294.8  779.79167
294.7  763.33333
294.6  771.04167
294.5  797.29167
294.4  779.58333
294.3  770.625
294.2  784.16667
294.1  775
294  747.08333
293.9  778.75
293.8  750.41667
293.7  778.95833
293.6  770.20833
293.5  761.25
293.4  770.83333
293.3  760.41667
293.2  755.625
293.1  796.25
293  780.83333
292.9  787.70833
292.8  761.25
292.7  745.83333
292.6  780.625
292.5  769.58333
292.4  794.79167
292.3  775.625
292.2  787.70833
292.1  778.33333
292  785.20833
291.9  768.75
291.8  800
291.7  770.41667
291.6  789.375
291.5  791.25
291.4  785
291.3  778.95833
291.2  787.91667
291.1  781.66667
291  771.04167
290.9  786.04167
290.8  791.66667
290.7  806.04167
290.6  793.75
290.5  808.54167
290.4  802.91667
290.3  826.45833
290.2  847.91667
290.1  842.91667
290  832.5
289.9  832.91667
289.8  858.75
289.7  844.79167
289.6  850.625
289.5  836.25
289.4  869.79167
289.3  871.45833
289.2  845.20833
289.1  881.25
289  862.5
288.9  895
288.8  914.58333
288.7  931.66667
288.6  937.08333
288.5  888.54167
288.4  922.70833
288.3  954.58333
288.2  973.54167
288.1  937.70833
288  951.45833
287.9  959.58333
287.8  944.58333
287.7  957.29167
287.6  967.70833
287.5  968.75
287.4  1006.0417
287.3  980.20833
287.2  952.91667
287.1  982.91667
287  1013.9583
286.9  1019.5833
286.8  1004.375
286.7  1015
286.6  1009.375
286.5  975.83333
286.4  991.875
286.3  982.5
286.2  959.58333
286.1  998.75
286  993.54167
285.9  957.5
285.8  964.16667
285.7  952.70833
285.6  931.66667
285.5  956.25
285.4  936.875
285.3  891.04167
285.2  883.125
285.1  874.375
285  839.375
284.9  851.875
284.8  862.70833
284.7  818.75
284.6  812.08333
284.5  825.83333
284.4  800.83333
284.3  809.58333
284.2  794.79167
284.1  807.91667
284  792.5
283.9  769.79167
283.8  774.58333
283.7  757.91667
283.6  777.29167
283.5  759.58333
283.4  771.875
283.3  763.125
283.2  783.75
283.1  774.16667
283  754.58333
282.9  768.125
282.8  780
282.7  752.29167
282.6  772.5
282.5  763.33333
282.4  752.29167
282.3  768.125
282.2  758.75
282.1  768.54167
282  762.91667
281.9  751.25
281.8  772.29167
281.7  751.66667
281.6  760.625
281.5  779.79167
281.4  743.75
281.3  747.5
281.2  758.125
281.1  753.75
281  753.125
280.9  745
280.8  772.70833
280.7  785
280.6  757.08333
280.5  768.95833
280.4  742.08333
280.3  756.875
280.2  738.75
280.1  755.83333
280  761.25

# Region:            overview
# Acquisition Date:  09/08/22 08:19:24 UTC
# Analysis Method:   XPS
# Analyzer:          Phoibos 100 R6
# Analyzer Lens:     MediumArea:1.5kV
# Analyzer Slit:     1:0.2x20\B:open
# Scan Mode:         FixedAnalyzerTransmission
# Curves/Scan:       1
# Values/Curve:      1205
# Dwell Time:        0.2
# Excitation Energy: 1486.61
# Binding Energy:    1200
# Pass Energy:       50
# Bias Voltage:      90
# Detector Voltage:  2600
# Eff. Workfunction: 4.309
# Source:            X-Ray Dummy
# Comment:           
#
# Cycle: 0
# Number of Scans: 1
#
# Cycle: 0, Curve: 0
# Acquisition Date: 09/08/22 08:19:24 UTC
#
# ColumnLabels: energy counts/s
#
1200  6205
1199  6190
1198  6080
1197  6175
1196  6455
1195  6075
1194  6170
1193  6175
1192  6385
1191  5900
1190  6130
1189  6085
1188  5860
1187  6030
1186  6135
1185  5545
1184  6025
1183  6105
1182  6195
1181  6055
1180  5660
1179  5840
1178  5645
1177  5725
1176  6135
1175  5550
1174  5775
1173  5885
1172  5690
1171  5565
1170  5625
1169  5565
1168  5670
1167  5605
1166  5715
1165  5780
1164  5795
1163  5670
1162  5615
1161  5350
1160  5730
1159  5365
1158  5870
1157  5420
1156  5785
1155  5550
1154  5605
1153  5430
1152  5635
1151  5510
1150  5435
1149  5525
1148  5210
1147  5280
1146  5375
1145  5425
1144  5335
1143  5155
1142  5195
1141  5360
1140  5265
1139  4990
1138  4835
1137  5065
1136  4675
1135  4860
1134  4775
1133  4920
1132  4765
1131  4675
1130  4715
1129  4670
1128  4715
1127  4550
1126  4650
1125  4630
1124  4830
1123  4630
1122  4640
1121  4515
1120  4540
1119  4425
1118  4705
1117  4570
1116  4690
1115  4620
1114  4640
1113  4835
1112  4675
1111  4990
1110  4675
1109  4670
1108  4865
1107  4695
1106  4665
1105  4880
1104  4730
1103  4555
1102  4330
1101  4650
1100  4710
1099  4565
1098  4685
1097  4765
1096  4675
1095  4670
1094  4610
1093  4610
1092  4640
1091  4935
1090  4880
1089  5535
1088  5450
1087  5745
1086  5825
1085  5685
1084  5360
1083  4765
1082  4905
1081  5140
1080  4850
1079  4820
1078  4610
1077  4390
1076  4085
1075  3795
1074  3600
1073  3795
1072  3595
1071  3615
1070  3840
1069  3580
1068  3565
1067  3725
1066  3615
1065  3500
1064  3485
1063  3450
1062  3540
1061  3540
1060  3770
1059  3565
1058  3445
1057  3445
1056  3410
1055  3500
1054  3820
1053  3710
1052  3490
1051  3500
1050  3355
1049  3180
1048  3485
1047  3555
1046  3370
1045  3375
1044  3395
1043  3385
1042  3425
1041  3485
1040  3375
1039  3245
1038  3300
1037  3470
1036  3425
1035  3250
1034  3295
1033  3150
1032  3345
1031  3020
1030  3285
1029  3200
1028  3200
1027  3320
1026  3405
1025  3330
1024  3390
1023  3295
1022  3260
1021  3095
1020  3330
1019  3460
1018  3375
1017  3240
1016  3375
1015  3260
1014  3435
1013  3205
1012  3405
1011  3250
1010  3390
1009  3235
1008  3415
1007  3295
1006  3200
1005  3410
1004  3405
1003  3185
1002  3285
1001  3305
1000  3330
999  3515
998  3435
997  3385
996  3250
995  3240
994  3700
993  3335
992  3160
991  3165
990  3280
989  3525
988  3185
987  3450
986  3415
985  3125
984  3385
983  3645
982  3420
981  3485
980  3645
979  3520
978  3355
977  3450
976  3725
975  3520
974  3460
973  3195
972  3400
971  2990
970  3000
969  2865
968  2670
967  2645
966  2925
965  2700
964  2950
963  2545
962  2525
961  2715
960  2690
959  2670
958  2510
957  2830
956  2515
955  2730
954  2750
953  2695
952  2670
951  2815
950  2600
949  2685
948  2590
947  2805
946  2710
945  2710
944  2755
943  2690
942  2630
941  2635
940  2815
939  2625
938  2615
937  2570
936  2680
935  2840
934  2800
933  2560
932  2720
931  2700
930  2645
929  2540
928  2660
927  2690
926  2790
925  2805
924  2625
923  2785
922  2860
921  2555
920  2615
919  2815
918  2610
917  2745
916  2950
915  2690
914  2760
913  2905
912  2645
911  2835
910  2865
909  2735
908  2745
907  2840
906  2735
905  2770
904  2965
903  2800
902  2965
901  2795
900  2805
899  2655
898  2830
897  2785
896  2855
895  2715
894  2905
893  2825
892  2720
891  2955
890  2885
889  2760
888  2835
887  2800
886  2865
885  2900
884  2830
883  3005
882  2745
881  2810
880  2925
879  2675
878  2795
877  2905
876  2995
875  3040
874  2875
873  2825
872  2770
871  2845
870  2835
869  2830
868  2825
867  2815
866  2960
865  2890
864  2680
863  2665
862  2830
861  2830
860  2835
859  3040
858  2680
857  2860
856  3045
855  2910
854  2740
853  2690
852  2805
851  2970
850  2945
849  2755
848  2915
847  2890
846  2940
845  3065
844  2920
843  3085
842  2920
841  2490
840  2955
839  2905
838  2870
837  2840
836  2895
835  3125
834  2825
833  2900
832  3090
831  2915
830  2950
829  3005
828  3115
827  3345
826  3025
825  3130
824  3050
823  3190
822  2935
821  2925
820  2915
819  2885
818  2965
817  2845
816  2780
815  3050
814  2795
813  2985
812  2830
811  2840
810  2870
809  2920
808  2950
807  2840
806  2875
805  2755
804  2930
803  2800
802  2900
801  2730
800  2590
799  2870
798  2860
797  2995
796  2780
795  2870
794  2945
793  2835
792  2815
791  2995
790  2775
789  2940
788  2775
787  2930
786  3020
785  2875
784  2820
783  2770
782  2760
781  3095
780  2980
779  3030
778  2725
777  3055
776  2955
775  2745
774  2950
773  3035
772  2925
771  3010
770  3135
769  2785
768  2895
767  3005
766  2845
765  2845
764  3235
763  3225
762  2860
761  3055
760  2860
759  2930
758  3020
757  3075
756  3140
755  2900
754  2940
753  2920
752  3105
751  2895
750  3065
749  2930
748  2930
747  3190
746  3215
745  3220
744  3170
743  2930
742  3010
741  3075
740  3025
739  2940
738  2955
737  3260
736  3215
735  3130
734  3235
733  3160
732  2955
731  3070
730  3085
729  3045
728  3300
727  2960
726  2890
725  3035
724  3185
723  3180
722  3295
721  2925
720  3240
719  3535
718  3275
717  2960
716  3275
715  3135
714  3330
713  2950
712  3050
711  3285
710  3240
709  3345
708  3470
707  3625
706  3990
705  3940
704  4090
703  3670
702  3335
701  3460
700  3265
699  3160
698  3190
697  3230
696  2995
695  3255
694  3050
693  3220
692  3185
691  3020
690  3175
689  3325
688  3205
687  3480
686  3145
685  3035
684  3225
683  3105
682  2975
681  3230
680  3210
679  3145
678  3015
677  3100
676  3055
675  2955
674  3255
673  3210
672  3220
671  3230
670  3395
669  4220
668  4550
667  5155
666  5080
665  4195
664  3965
663  3325
662  3320
661  3085
660  3090
659  3170
658  2880
657  3110
656  3040
655  3040
654  2730
653  2675
652  2890
651  2725
650  2630
649  2615
648  2690
647  2670
646  2725
645  2610
644  2785
643  2570
642  2670
641  2925
640  2725
639  2670
638  2965
637  2690
636  2865
635  2745
634  2865
633  2980
632  2780
631  2605
630  2880
629  2730
628  2755
627  2790
626  2885
625  2915
624  2805
623  2930
622  2970
621  2855
620  2680
619  2650
618  2885
617  2795
616  2820
615  2965
614  2795
613  3180
612  2525
611  3120
610  2580
609  2810
608  2815
607  2995
606  2925
605  2755
604  3025
603  3020
602  2845
601  2650
600  2805
599  3050
598  2865
597  3060
596  2945
595  2955
594  2945
593  2840
592  2920
591  2780
590  3035
589  2840
588  2820
587  3075
586  2795
585  3080
584  3070
583  2905
582  3060
581  2965
580  3035
579  2945
578  2980
577  2865
576  2895
575  3095
574  3015
573  3055
572  2850
571  2985
570  2955
569  3040
568  3145
567  2870
566  2970
565  2815
564  3030
563  3095
562  3065
561  3125
560  3160
559  3340
558  3165
557  3075
556  3125
555  3110
554  2925
553  3205
552  3260
551  2985
550  3225
549  2945
548  3245
547  3220
546  2865
545  3130
544  3185
543  2770
542  2610
541  2695
540  2955
539  3035
538  2885
537  3395
536  4390
535  5045
534  4505
533  3945
532  4180
531  4485
530  3805
529  3005
528  2785
527  2920
526  2855
525  2715
524  2780
523  2875
522  2835
521  2755
520  2890
519  2690
518  2800
517  2825
516  2750
515  2650
514  2685
513  2620
512  2890
511  2515
510  2560
509  2780
508  2680
507  2630
506  2570
505  2735
504  2550
503  2475
502  2665
501  2830
500  2750
499  2765
498  2550
497  2845
496  3030
495  2785
494  2910
493  2520
492  2910
491  2790
490  2835
489  2860
488  3035
487  3375
486  2865
485  2720
484  2800
483  2775
482  2825
481  2790
480  2725
479  2745
478  2740
477  2595
476  2815
475  2895
474  2690
473  2660
472  2795
471  2990
470  2870
469  2780
468  2945
467  2890
466  2775
465  3245
464  3295
463  2890
462  2680
461  2855
460  2705
459  2660
458  2580
457  2545
456  2905
455  3805
454  6140
453  8325
452  6665
451  3835
450  2275
449  2550
448  3005
447  5155
446  8975
445  10595
444  6395
443  2980
442  2055
441  1595
440  1550
439  1500
438  1245
437  1580
436  1790
435  1935
434  1810
433  1390
432  1270
431  1160
430  1075
429  1120
428  1095
427  1105
426  1120
425  1110
424  1035
423  905
422  845
421  970
420  1030
419  1020
418  875
417  1110
416  1130
415  985
414  1025
413  935
412  1070
411  1085
410  930
409  1060
408  1025
407  1200
406  1095
405  1135
404  1060
403  960
402  1060
401  1050
400  1170
399  1135
398  1025
397  990
396  1055
395  900
394  1190
393  1015
392  1160
391  1040
390  930
389  945
388  955
387  1105
386  1050
385  1135
384  1050
383  1130
382  1115
381  1035
380  1025
379  1080
378  1180
377  1110
376  1075
375  1005
374  1045
373  930
372  1035
371  950
370  1005
369  865
368  915
367  1080
366  975
365  945
364  1030
363  900
362  1010
361  1070
360  935
359  1015
358  1105
357  1035
356  935
355  1010
354  995
353  990
352  1065
351  1025
350  985
349  1020
348  1125
347  1040
346  1005
345  1005
344  895
343  1010
342  995
341  850
340  1010
339  890
338  1030
337  1015
336  1095
335  985
334  1060
333  1010
332  1110
331  1075
330  895
329  1100
328  990
327  990
326  1060
325  980
324  1010
323  1060
322  1165
321  1185
320  1150
319  1070
318  1080
317  905
316  1035
315  1010
314  1010
313  1025
312  1105
311  885
310  1130
309  1035
308  1150
307  1010
306  1095
305  1065
304  930
303  1030
302  910
301  970
300  1010
299  1110
298  1000
297  1030
296  995
295  935
294  1025
293  1045
292  1070
291  1020
290  1270
289  1315
288  1190
287  1530
286  1415
285  1105
284  1135
283  985
282  1010
281  1035
280  1045
279  1045
278  985
277  1035
276  1145
275  1080
274  1080
273  985
272  915
271  1125
270  1175
269  1115
268  1080
267  905
266  1055
265  970
264  1010
263  1025
262  1105
261  1015
260  1175
259  1055
258  875
257  1095
256  1080
255  1010
254  1110
253  1060
252  985
251  1115
250  1045
249  1070
248  1045
247  925
246  1165
245  1105
244  985
243  1085
242  1155
241  1075
240  1055
239  1085
238  1050
237  1065
236  985
235  1055
234  1030
233  1085
232  1065
231  1055
230  1155
229  1005
228  1075
227  1025
226  1135
225  1025
224  975
223  1095
222  1030
221  1235
220  1100
219  1125
218  1055
217  970
216  1005
215  1070
214  1160
213  1030
212  940
211  1155
210  1060
209  1105
208  1105
207  1070
206  1335
205  1230
204  1080
203  1040
202  1065
201  1020
200  1135
199  1080
198  1090
197  1075
196  1010
195  1130
194  1045
193  1045
192  1165
191  1160
190  1125
189  1040
188  1050
187  1030
186  1115
185  1095
184  1180
183  1190
182  1195
181  1115
180  1315
179  1175
178  1105
177  1015
176  1185
175  1085
174  1175
173  1130
172  1205
171  1115
170  1100
169  1060
168  1195
167  1185
166  1080
165  1165
164  1090
163  1070
162  1115
161  1225
160  1085
159  1315
158  1270
157  1410
156  1510
155  1355
154  1375
153  1115
152  1115
151  1180
150  1085
149  1225
148  1170
147  1165
146  1105
145  1175
144  1110
143  985
142  995
141  1065
140  1095
139  1040
138  1080
137  1125
136  1140
135  1105
134  1280
133  1065
132  1130
131  1170
130  1060
129  1120
128  1370
127  1080
126  1360
125  1265
124  1230
123  1345
122  1200
121  1340
120  1125
119  1105
118  1065
117  1115
116  1075
115  1090
114  920
113  965
112  935
111  1080
110  1060
109  1095
108  1070
107  1390
106  1480
105  1400
104  1225
103  1185
102  1080
101  1015
100  1040
99  1215
98  1200
97  1110
96  1235
95  1225
94  1100
93  1050
92  1210
91  1100
90  1070
89  1120
88  1250
87  1200
86  1220
85  1315
84  1105
83  1330
82  1300
81  1395
80  1345
79  1155
78  1185
77  1135
76  1175
75  1055
74  1055
73  885
72  950
71  925
70  965
69  895
68  940
67  790
66  840
65  850
64  895
63  800
62  815
61  835
60  670
59  915
58  820
57  940
56  710
55  735
54  735
53  815
52  705
51  885
50  775
49  865
48  900
47  670
46  855
45  815
44  820
43  860
42  860
41  760
40  770
39  835
38  785
37  825
36  805
35  825
34  800
33  910
32  885
31  795
30  875
29  885
28  890
27  935
26  1030
25  790
24  845
23  970
22  965
21  1265
20  1890
19  2705
18  2290
17  1390
16  830
15  645
14  665
13  525
12  585
11  735
10  750
9  775
8  810
7  585
6  595
5  635
4  570
3  550
2  565
1  520
-2.2737368e-013  505
-1  610
-2  445
-3  510
-4  565

# Region:            In3d
# Acquisition Date:  09/08/22 08:35:37 UTC
# Analysis Method:   XPS
# Analyzer:          Phoibos 100 R6
# Analyzer Lens:     LargeArea:1.5kV
# Analyzer Slit:     1:0.2x20\B:open
# Scan Mode:         FixedAnalyzerTransmission
# Curves/Scan:       1
# Values/Curve:      231
# Dwell Time:        0.8
# Excitation Energy: 1486.61
# Binding Energy:    460
# Pass Energy:       30
# Bias Voltage:      90
# Detector Voltage:  2600
# Eff. Workfunction: 4.309
# Source:            X-Ray Dummy
# Comment:           
#
# Cycle: 0
# Number of Scans: 2
#
# Cycle: 0, Curve: 0
# Acquisition Date: 09/08/22 08:35:37 UTC
#
# ColumnLabels: energy counts/s
#
460  2257.5
459.9  2140
459.8  2165.625
459.7  2148.75
459.6  2096.875
459.5  2202.5
459.4  2173.125
459.3  2079.375
459.2  2121.25
459.1  2107.5
459  2075
458.9  2086.25
458.8  2012.5
458.7  2006.25
458.6  2100.625
458.5  2061.875
458.4  2195
458.3  2100.625
458.2  2089.375
458.1  1998.125
458  2076.875
457.9  2085
457.8  2100
457.7  2115
457.6  2060.625
457.5  2089.375
457.4  2135
457.3  2063.75
457.2  2138.125
457.1  2117.5
457  2145.625
456.9  2198.75
456.8  2173.125
456.7  2179.375
456.6  2244.375
456.5  2160
456.4  2283.75
456.3  2261.25
456.2  2305.625
456.1  2293.125
456  2393.125
455.9  2391.875
455.8  2440
455.7  2498.125
455.6  2576.875
455.5  2631.25
455.4  2723.75
455.3  2815.625
455.2  2913.75
455.1  2946.25
455  2966.875
454.9  3182.5
454.8  3320.625
454.7  3500
454.6  3602.5
454.5  3746.25
454.4  3975
454.3  4163.125
454.2  4468.125
454.1  4623.125
454  4856.875
453.9  5113.125
453.8  5330.625
453.7  5659.375
453.6  5900.625
453.5  6190.625
453.4  6345
453.3  6633.125
453.2  6821.875
453.1  7043.75
453  7048.125
452.9  7035.625
452.8  7186.875
452.7  7196.875
452.6  7111.875
452.5  6844.375
452.4  6631.25
452.3  6446.25
452.2  5886.875
452.1  5625.625
452  5314.375
451.9  4878.75
451.8  4328.75
451.7  3998.75
451.6  3618.75
451.5  3348.125
451.4  3084.375
451.3  2807.5
451.2  2601.25
451.1  2418.125
451  2317.5
450.9  2148.75
450.8  2084.375
450.7  2044.375
450.6  1933.75
450.5  1948.125
450.4  1849.375
450.3  1796.25
450.2  1801.25
450.1  1756.875
450  1826.25
449.9  1779.375
449.8  1809.375
449.7  1775
449.6  1722.5
449.5  1795.625
449.4  1793.125
449.3  1893.75
449.2  1851.25
449.1  1907.5
449  1857.5
448.9  1912.5
448.8  1958.75
448.7  1935.625
448.6  2042.5
448.5  2020.625
448.4  2156.875
448.3  2196.875
448.2  2315.625
448.1  2345
448  2481.875
447.9  2603.75
447.8  2700
447.7  2870.625
447.6  2921.25
447.5  3070.625
447.4  3311.875
447.3  3447.5
447.2  3710.625
447.1  3790
447  4215.625
446.9  4404.375
446.8  4753.125
446.7  5000
446.6  5371.25
446.5  5832.5
446.4  6088.125
446.3  6425.625
446.2  6809.375
446.1  7207.5
446  7568.125
445.9  7901.875
445.8  8364.375
445.7  8710
445.6  9049.375
445.5  9149.375
445.4  9385
445.3  9273.125
445.2  9276.25
445.1  9151.875
445  9053.75
444.9  8648.125
444.8  8388.75
444.7  7728.125
444.6  7456.875
444.5  6908.75
444.4  6337.5
444.3  5642.5
444.2  5218.125
444.1  4705
444  4167.5
443.9  3861.25
443.8  3371.25
443.7  3220
443.6  2867.5
443.5  2642.5
443.4  2428.125
443.3  2420
443.2  2234.375
443.1  2146.875
443  2090
442.9  1978.75
442.8  1961.25
442.7  1899.375
442.6  1801.25
442.5  1740.625
442.4  1685.625
442.3  1726.875
442.2  1615.625
442.1  1661.875
442  1584.375
441.9  1570
441.8  1453.75
441.7  1460.625
441.6  1506.875
441.5  1481.25
441.4  1419.375
441.3  1429.375
441.2  1410.625
441.1  1360
441  1364.375
440.9  1366.875
440.8  1311.25
440.7  1322.5
440.6  1289.375
440.5  1341.25
440.4  1261.875
440.3  1234.375
440.2  1248.75
440.1  1231.875
440  1158.125
439.9  1164.375
439.8  1177.5
439.7  1157.5
439.6  1166.875
439.5  1147.5
439.4  1089.375
439.3  1137.5
439.2  1138.125
439.1  1118.75
439  1098.75
438.9  1120.625
438.8  1131.875
438.7  1095
438.6  1123.75
438.5  1113.75
438.4  1123.75
438.3  1100
438.2  1061.25
438.1  1103.75
438  1157.5
437.9  1114.375
437.8  1086.25
437.7  1128.125
437.6  1165
437.5  1165
437.4  1145.625
437.3  1162.5
437.2  1171.25
437.1  1218.125
437  1236.25

# Region:            Sn3d
# Acquisition Date:  09/08/22 08:25:54 UTC
# Analysis Method:   XPS
# Analyzer:          Phoibos 100 R6
# Analyzer Lens:     LargeArea:1.5kV
# Analyzer Slit:     1:0.2x20\B:open
# Scan Mode:         FixedAnalyzerTransmission
# Curves/Scan:       1
# Values/Curve:      231
# Dwell Time:        0.8
# Excitation Energy: 1486.61
# Binding Energy:    503
# Pass Energy:       30
# Bias Voltage:      90
# Detector Voltage:  2600
# Eff. Workfunction: 4.309
# Source:            X-Ray Dummy
# Comment:           
#
# Cycle: 0
# Number of Scans: 1
#
# Cycle: 0, Curve: 0
# Acquisition Date: 09/08/22 08:25:54 UTC
#
# ColumnLabels: energy counts/s
#
503  2261.25
502.9  2313.75
502.8  2347.5
502.7  2317.5
502.6  2300
502.5  2291.25
502.4  2358.75
502.3  2278.75
502.2  2326.25
502.1  2301.25
502  2232.5
501.9  2190
501.8  2371.25
501.7  2275
501.6  2236.25
501.5  2226.25
501.4  2315
501.3  2362.5
501.2  2262.5
501.1  2301.25
501  2297.5
500.9  2213.75
500.8  2287.5
500.7  2267.5
500.6  2321.25
500.5  2245
500.4  2325
500.3  2238.75
500.2  2293.75
500.1  2250
500  2351.25
499.9  2197.5
499.8  2328.75
499.7  2331.25
499.6  2276.25
499.5  2312.5
499.4  2262.5
499.3  2302.5
499.2  2302.5
499.1  2198.75
499  2340
498.9  2226.25
498.8  2278.75
498.7  2381.25
498.6  2310
498.5  2298.75
498.4  2242.5
498.3  2302.5
498.2  2407.5
498.1  2365
498  2286.25
497.9  2298.75
497.8  2292.5
497.7  2292.5
497.6  2307.5
497.5  2405
497.4  2465
497.3  2385
497.2  2416.25
497.1  2363.75
497  2390
496.9  2431.25
496.8  2487.5
496.7  2442.5
496.6  2556.25
496.5  2556.25
496.4  2458.75
496.3  2537.5
496.2  2500
496.1  2535
496  2462.5
495.9  2622.5
495.8  2587.5
495.7  2583.75
495.6  2601.25
495.5  2552.5
495.4  2473.75
495.3  2550
495.2  2530
495.1  2507.5
495  2558.75
494.9  2447.5
494.8  2406.25
494.7  2423.75
494.6  2451.25
494.5  2360
494.4  2397.5
494.3  2387.5
494.2  2256.25
494.1  2376.25
494  2357.5
493.9  2277.5
493.8  2292.5
493.7  2250
493.6  2321.25
493.5  2237.5
493.4  2246.25
493.3  2191.25
493.2  2267.5
493.1  2192.5
493  2340
492.9  2245
492.8  2268.75
492.7  2218.75
492.6  2270
492.5  2176.25
492.4  2317.5
492.3  2288.75
492.2  2271.25
492.1  2228.75
492  2313.75
491.9  2190
491.8  2276.25
491.7  2257.5
491.6  2265
491.5  2141.25
491.4  2240
491.3  2277.5
491.2  2190
491.1  2160
491  2271.25
490.9  2215
490.8  2283.75
490.7  2296.25
490.6  2308.75
490.5  2326.25
490.4  2202.5
490.3  2252.5
490.2  2283.75
490.1  2300
490  2153.75
489.9  2347.5
489.8  2346.25
489.7  2406.25
489.6  2361.25
489.5  2266.25
489.4  2341.25
489.3  2355
489.2  2412.5
489.1  2447.5
489  2462.5
488.9  2415
488.8  2341.25
488.7  2397.5
488.6  2476.25
488.5  2485
488.4  2517.5
488.3  2457.5
488.2  2577.5
488.1  2636.25
488  2615
487.9  2533.75
487.8  2567.5
487.7  2597.5
487.6  2590
487.5  2683.75
487.4  2588.75
487.3  2805
487.2  2757.5
487.1  2590
487  2631.25
486.9  2616.25
486.8  2487.5
486.7  2736.25
486.6  2582.5
486.5  2672.5
486.4  2650
486.3  2498.75
486.2  2522.5
486.1  2523.75
486  2521.25
485.9  2493.75
485.8  2418.75
485.7  2393.75
485.6  2405
485.5  2347.5
485.4  2313.75
485.3  2342.5
485.2  2280
485.1  2210
485  2428.75
484.9  2250
484.8  2308.75
484.7  2330
484.6  2263.75
484.5  2342.5
484.4  2270
484.3  2302.5
484.2  2236.25
484.1  2213.75
484  2293.75
483.9  2306.25
483.8  2208.75
483.7  2283.75
483.6  2210
483.5  2257.5
483.4  2210
483.3  2283.75
483.2  2226.25
483.1  2287.5
483  2258.75
482.9  2142.5
482.8  2240
482.7  2286.25
482.6  2211.25
482.5  2242.5
482.4  2235
482.3  2312.5
482.2  2236.25
482.1  2262.5
482  2221.25
481.9  2285
481.8  2253.75
481.7  2268.75
481.6  2270
481.5  2251.25
481.4  2370
481.3  2318.75
481.2  2251.25
481.1  2277.5
481  2223.75
480.9  2265
480.8  2352.5
480.7  2287.5
480.6  2316.25
480.5  2285
480.4  2332.5
480.3  2235
480.2  2283.75
480.1  2267.5
480  2261.25

# Region:            O1s
# Acquisition Date:  09/08/22 09:03:25 UTC
# Analysis Method:   XPS
# Analyzer:          Phoibos 100 R6
# Analyzer Lens:     LargeArea:1.5kV
# Analyzer Slit:     1:0.2x20\B:open
# Scan Mode:         FixedAnalyzerTransmission
# Curves/Scan:       1
# Values/Curve:      111
# Dwell Time:        0.8
# Excitation Energy: 1486.61
# Binding Energy:    538
# Pass Energy:       30
# Bias Voltage:      90
# Detector Voltage:  2600
# Eff. Workfunction: 4.309
# Source:            X-Ray Dummy
# Comment:           
#
# Cycle: 0
# Number of Scans: 6
#
# Cycle: 0, Curve: 0
# Acquisition Date: 09/08/22 09:03:25 UTC
#
# ColumnLabels: energy counts/s
#
538  2583.3333
537.9  2571.4583
537.8  2609.375
537.7  2686.4583
537.6  2654.375
537.5  2748.3333
537.4  2715.2083
537.3  2760.8333
537.2  2828.9583
537.1  2889.5833
537  2989.5833
536.9  3059.1667
536.8  3146.875
536.7  3266.4583
536.6  3341.0417
536.5  3465.625
536.4  3582.7083
536.3  3691.0417
536.2  3846.875
536.1  3984.375
536  4122.9167
535.9  4229.7917
535.8  4356.0417
535.7  4450
535.6  4554.1667
535.5  4568.9583
535.4  4563.125
535.3  4592.7083
535.2  4575.2083
535.1  4562.2917
535  4545
534.9  4352.0833
534.8  4297.9167
534.7  4201.875
534.6  4114.375
534.5  4022.0833
534.4  3889.5833
534.3  3782.5
534.2  3718.3333
534.1  3543.125
534  3498.75
533.9  3407.7083
533.8  3351.875
533.7  3279.375
533.6  3257.9167
533.5  3204.7917
533.4  3255
533.3  3207.5
533.2  3165.625
533.1  3188.9583
533  3159.1667
532.9  3228.3333
532.8  3208.5417
532.7  3245.8333
532.6  3211.875
532.5  3306.25
532.4  3363.5417
532.3  3418.3333
532.2  3458.75
532.1  3493.75
532  3536.6667
531.9  3620
531.8  3677.5
531.7  3812.7083
531.6  3811.4583
531.5  3932.2917
531.4  4011.875
531.3  4070.8333
531.2  4146.875
531.1  4199.1667
531  4186.4583
530.9  4241.4583
530.8  4197.2917
530.7  4188.9583
530.6  4131.6667
530.5  4030
530.4  3963.75
530.3  3963.125
530.2  3723.75
530.1  3577.2917
530  3478.5417
529.9  3313.3333
529.8  3199.1667
529.7  3106.0417
529.6  2958.9583
529.5  2864.5833
529.4  2739.5833
529.3  2710.4167
529.2  2607.2917
529.1  2593.5417
529  2562.2917
528.9  2513.125
528.8  2479.375
528.7  2440.2083
528.6  2419.5833
528.5  2393.125
528.4  2356.4583
528.3  2387.9167
528.2  2362.9167
528.1  2366.25
528  2394.5833
527.9  2382.7083
527.8  2375
527.7  2343.9583
527.6  2384.5833
527.5  2313.75
527.4  2344.1667
527.3  2308.5417
527.2  2374.375
527.1  2411.0417
527  2409.5833

# Region:            Si2p
# Acquisition Date:  09/08/22 09:16:51 UTC
# Analysis Method:   XPS
# Analyzer:          Phoibos 100 R6
# Analyzer Lens:     LargeArea:1.5kV
# Analyzer Slit:     1:0.2x20\B:open
# Scan Mode:         FixedAnalyzerTransmission
# Curves/Scan:       1
# Values/Curve:      101
# Dwell Time:        0.8
# Excitation Energy: 1486.61
# Binding Energy:    110
# Pass Energy:       30
# Bias Voltage:      90
# Detector Voltage:  2600
# Eff. Workfunction: 4.309
# Source:            X-Ray Dummy
# Comment:           
#
# Cycle: 0
# Number of Scans: 10
#
# Cycle: 0, Curve: 0
# Acquisition Date: 09/08/22 09:16:51 UTC
#
# ColumnLabels: energy counts/s
#
110  695.625
109.9  694.125
109.8  682.75
109.7  673.5
109.6  690.5
109.5  705.5
109.4  693.25
109.3  696.25
109.2  685.25
109.1  708.375
109  691
108.9  710.625
108.8  681.125
108.7  719.125
108.6  714.5
108.5  730.875
108.4  723.75
108.3  720.5
108.2  733.5
108.1  736.875
108  723.125
107.9  763.125
107.8  851.625
107.7  777.875
107.6  779.875
107.5  817.625
107.4  834.875
107.3  819.375
107.2  866.625
107.1  874.375
107  891.5
106.9  913.5
106.8  929.75
106.7  942.125
106.6  955.75
106.5  974.75
106.4  980.875
106.3  966.125
106.2  1010.25
106.1  986.5
106  999.125
105.9  994.125
105.8  979.625
105.7  970.25
105.6  949.125
105.5  957.625
105.4  927.875
105.3  907.25
105.2  900.625
105.1  860
105  853.375
104.9  855.75
104.8  823.125
104.7  813.75
104.6  805.75
104.5  786.75
104.4  783.875
104.3  785.5
104.2  771.875
104.1  758.25
104  751.375
103.9  738.625
103.8  722.875
103.7  741.875
103.6  729.125
103.5  735.875
103.4  745.25
103.3  726.875
103.2  739
103.1  717.625
103  716
102.9  727
102.8  723.125
102.7  722.5
102.6  695.125
102.5  695.375
102.4  704.375
102.3  724.375
102.2  707.75
102.1  713.75
102  714.125
101.9  685.75
101.8  704.5
101.7  699.5
101.6  690.75
101.5  693.875
101.4  712.75
101.3  691.375
101.2  700.375
101.1  709.875
101  690.375
100.9  695.625
100.8  689.625
100.7  699
100.6  700.75
100.5  697.125
100.4  705.375
100.3  700.625
100.2  691.25
100.1  695.75
100  706.125

# Region:            N1s
# Acquisition Date:  09/08/22 09:46:21 UTC
# Analysis Method:   XPS
# Analyzer:          Phoibos 100 R6
# Analyzer Lens:     LargeArea:1.5kV
# Analyzer Slit:     1:0.2x20\B:open
# Scan Mode:         FixedAnalyzerTransmission
# Curves/Scan:       1
# Values/Curve:      121
# Dwell Time:        0.8
# Excitation Energy: 1486.61
# Binding Energy:    409
# Pass Energy:       30
# Bias Voltage:      90
# Detector Voltage:  2600
# Eff. Workfunction: 4.309
# Source:            X-Ray Dummy
# Comment:           
#
# Cycle: 0
# Number of Scans: 27
#
# Cycle: 0, Curve: 0
# Acquisition Date: 09/08/22 09:46:21 UTC
#
# ColumnLabels: energy counts/s
#
409  828.19444
408.9  833.24074
408.8  840.97222
408.7  834.30556
408.6  823.7037
408.5  846.80556
408.4  830.55556
408.3  831.89815
408.2  836.48148
408.1  821.62037
408  831.38889
407.9  836.85185
407.8  832.91667
407.7  827.96296
407.6  836.25
407.5  819.07407
407.4  832.5463
407.3  829.62963
407.2  841.34259
407.1  823.47222
407  844.25926
406.9  831.48148
406.8  831.66667
406.7  830.46296
406.6  838.93519
406.5  830.0463
406.4  826.2963
406.3  843.10185
406.2  824.07407
406.1  833.93519
406  825.23148
405.9  828.05556
405.8  828.28704
405.7  842.91667
405.6  834.72222
405.5  837.26852
405.4  834.53704
405.3  838.88889
405.2  826.25
405.1  842.12963
405  832.03704
404.9  842.82407
404.8  841.2963
404.7  837.87037
404.6  839.39815
404.5  838.00926
404.4  855
404.3  881.94444
404.2  846.43519
404.1  837.91667
404  854.49074
403.9  851.01852
403.8  846.15741
403.7  854.21296
403.6  845.0463
403.5  842.26852
403.4  844.58333
403.3  861.94444
403.2  842.68519
403.1  866.2037
403  863.84259
402.9  863.28704
402.8  866.38889
402.7  858.51852
402.6  863.42593
402.5  857.12963
402.4  865.09259
402.3  867.77778
402.2  862.12963
402.1  859.49074
402  865.69444
401.9  883.33333
401.8  876.43519
401.7  873.37963
401.6  864.49074
401.5  875.60185
401.4  870.37037
401.3  875.83333
401.2  862.5
401.1  857.5463
401  854.25926
400.9  851.75926
400.8  859.58333
400.7  867.96296
400.6  878.05556
400.5  861.34259
400.4  861.48148
400.3  855.0463
400.2  857.91667
400.1  869.67593
400  850.41667
399.9  852.77778
399.8  847.68519
399.7  846.06481
399.6  842.96296
399.5  844.16667
399.4  841.57407
399.3  858.24074
399.2  847.31481
399.1  836.71296
399  846.71296
398.9  843.19444
398.8  840.18519
398.7  825.60185
398.6  828.10185
398.5  828.7037
398.4  835.87963
398.3  839.49074
398.2  831.85185
398.1  832.87037
398  839.39815
397.9  820.97222
397.8  828.28704
397.7  827.40741
397.6  820.64815
397.5  832.96296
397.4  832.4537
397.3  833.61111
397.2  830
397.1  826.80556
397  837.73148

