# Created by:        SpecsLab Prodigy, Version 4.60.2-r85849 
#
# XY-Serializer Export Settings:
#   Comment Prefix:           #
#   Output meta data:         yes
#   Energy Axis:              Binding Energy
#   Count Rate:               Counts per Second
#   Separate Scan Data:       no
#   Separate Channel Data:    no
#   External Channel Data:    yes
#   Transmission Function:    no
#   ErrorBar:                 no
#   Operation Results:        yes
#   Time Zone Format:         UTC
#
# Group:             Spectrum Group
#
# Region:            overview
# Acquisition Date:  08/22/22 17:19:46 UTC
# Analysis Method:   XPS
# Analyzer:          Phoibos 100 R6
# Analyzer Lens:     MediumArea:1.5kV
# Analyzer Slit:     1:0.2x20\B:open
# Scan Mode:         FixedAnalyzerTransmission
# Curves/Scan:       1
# Values/Curve:      1205
# Dwell Time:        0.2
# Excitation Energy: 1486.61
# Binding Energy:    1200
# Pass Energy:       50
# Bias Voltage:      90
# Detector Voltage:  2600
# Eff. Workfunction: 4.309
# Source:            X-Ray Dummy
# Comment:           
#
# Cycle: 0
# Number of Scans: 1
#
# Cycle: 0, Curve: 0
# Acquisition Date: 08/22/22 17:19:46 UTC
#
# ColumnLabels: energy counts/s
#
1200  9060
1199  8725
1198  9175
1197  8745
1196  9145
1195  9000
1194  8910
1193  8755
1192  8700
1191  9005
1190  8955
1189  8745
1188  9000
1187  8760
1186  8600
1185  8365
1184  8520
1183  8495
1182  8220
1181  8635
1180  8650
1179  8535
1178  7980
1177  8295
1176  8165
1175  8370
1174  7890
1173  8330
1172  8395
1171  8380
1170  8455
1169  8290
1168  8225
1167  8310
1166  8300
1165  7620
1164  7995
1163  8070
1162  8035
1161  8250
1160  8240
1159  7865
1158  8290
1157  8270
1156  8020
1155  8425
1154  7895
1153  7905
1152  8100
1151  7960
1150  7915
1149  8360
1148  8220
1147  7905
1146  7960
1145  7685
1144  8020
1143  7700
1142  7640
1141  7205
1140  6835
1139  7230
1138  7235
1137  7035
1136  6655
1135  6795
1134  6515
1133  6810
1132  6425
1131  6535
1130  6325
1129  6550
1128  6280
1127  6560
1126  6295
1125  6610
1124  6415
1123  6385
1122  6640
1121  6275
1120  6065
1119  6160
1118  6355
1117  6215
1116  6040
1115  6340
1114  6290
1113  6250
1112  6265
1111  6720
1110  6400
1109  6365
1108  6440
1107  6320
1106  6035
1105  6650
1104  6355
1103  6325
1102  6130
1101  6245
1100  6265
1099  6580
1098  6240
1097  6280
1096  6440
1095  6885
1094  6670
1093  6680
1092  6850
1091  6775
1090  7115
1089  7875
1088  8690
1087  9095
1086  9135
1085  8790
1084  8530
1083  7655
1082  6850
1081  7115
1080  7330
1079  7325
1078  6680
1077  6080
1076  5480
1075  5045
1074  4850
1073  4685
1072  4710
1071  4725
1070  5035
1069  4505
1068  4770
1067  4625
1066  4785
1065  4470
1064  4645
1063  4720
1062  4940
1061  4795
1060  4310
1059  4560
1058  4515
1057  4445
1056  4135
1055  4350
1054  4175
1053  4130
1052  4285
1051  4220
1050  3995
1049  4115
1048  4070
1047  4145
1046  4000
1045  4105
1044  4050
1043  4060
1042  4075
1041  4055
1040  3960
1039  4060
1038  3875
1037  4040
1036  4145
1035  3940
1034  4110
1033  4140
1032  3900
1031  3990
1030  4130
1029  3955
1028  4115
1027  4150
1026  3930
1025  3955
1024  4045
1023  4100
1022  4380
1021  3890
1020  4305
1019  4055
1018  4405
1017  4070
1016  4255
1015  4025
1014  4195
1013  4245
1012  4175
1011  4100
1010  4075
1009  4055
1008  4120
1007  4285
1006  3915
1005  4205
1004  4070
1003  3740
1002  4090
1001  3990
1000  4180
999  4125
998  4440
997  3995
996  4560
995  4130
994  4110
993  4100
992  4190
991  3840
990  4065
989  4390
988  3920
987  4155
986  3980
985  3915
984  4095
983  4040
982  3905
981  4135
980  3870
979  4350
978  3855
977  4565
976  4320
975  4805
974  5020
973  4455
972  4305
971  3995
970  4000
969  4145
968  3710
967  3905
966  3485
965  3680
964  3635
963  3570
962  3520
961  3495
960  3640
959  3495
958  3705
957  3605
956  3535
955  3735
954  3400
953  3560
952  3720
951  3605
950  3585
949  3430
948  3535
947  3600
946  3650
945  3630
944  3500
943  3535
942  3735
941  3575
940  3620
939  3430
938  3445
937  3675
936  3380
935  3490
934  3525
933  3505
932  3750
931  3625
930  3710
929  3495
928  3655
927  3700
926  3515
925  3710
924  3730
923  3645
922  3785
921  3980
920  3555
919  3275
918  3550
917  3380
916  3495
915  3840
914  3445
913  3645
912  3635
911  3640
910  3700
909  3600
908  3615
907  3475
906  3605
905  3695
904  3470
903  3600
902  3580
901  3405
900  3535
899  3430
898  3895
897  3860
896  3585
895  3675
894  3910
893  3635
892  3700
891  3570
890  3930
889  3890
888  3615
887  3710
886  3740
885  3525
884  3645
883  3695
882  3760
881  3740
880  3660
879  3960
878  3635
877  3855
876  3750
875  3615
874  3730
873  3895
872  3555
871  3985
870  3625
869  3600
868  3970
867  4010
866  3665
865  3680
864  3820
863  3670
862  3590
861  3695
860  3645
859  3605
858  3765
857  4025
856  3595
855  3715
854  3710
853  4020
852  3855
851  3870
850  3815
849  3905
848  3955
847  3940
846  3800
845  3695
844  3980
843  3815
842  3860
841  4035
840  4165
839  4030
838  3910
837  3785
836  4140
835  3860
834  4090
833  3800
832  4050
831  4120
830  4120
829  4235
828  4080
827  4315
826  4165
825  3900
824  4145
823  3890
822  3760
821  4100
820  3870
819  3770
818  3870
817  3775
816  3735
815  3855
814  3775
813  3840
812  3685
811  4025
810  3745
809  3625
808  3770
807  3820
806  3845
805  3620
804  3610
803  3615
802  4030
801  3805
800  3890
799  3880
798  3985
797  3615
796  3885
795  3760
794  3725
793  3795
792  3960
791  3715
790  3890
789  3905
788  3610
787  3845
786  3970
785  3765
784  3855
783  3780
782  4185
781  4035
780  3920
779  3835
778  3665
777  3730
776  4000
775  4085
774  3810
773  3695
772  4140
771  3805
770  3865
769  3725
768  4090
767  3830
766  3965
765  3975
764  3935
763  3820
762  3935
761  3765
760  3795
759  3960
758  4100
757  4385
756  3885
755  4105
754  4060
753  3810
752  3980
751  3980
750  3940
749  3920
748  4055
747  4135
746  4355
745  4270
744  4010
743  4095
742  4070
741  4145
740  3985
739  4020
738  3840
737  4175
736  4165
735  3985
734  4200
733  4150
732  4230
731  4160
730  4140
729  4015
728  4045
727  4130
726  4265
725  4030
724  4345
723  4490
722  4120
721  4285
720  4385
719  4320
718  4325
717  4495
716  4390
715  4460
714  4155
713  4205
712  4295
711  4060
710  4195
709  4505
708  4350
707  4910
706  5640
705  5990
704  6035
703  5430
702  5035
701  5020
700  4440
699  4300
698  4530
697  4460
696  4560
695  4440
694  4555
693  4625
692  4680
691  4700
690  4710
689  4420
688  4685
687  4790
686  4730
685  4740
684  4720
683  4515
682  4755
681  4615
680  4895
679  4960
678  4450
677  4610
676  4320
675  4505
674  4475
673  4475
672  4800
671  4805
670  5465
669  6015
668  7205
667  8145
666  8005
665  7130
664  5680
663  5225
662  4515
661  4265
660  4495
659  4620
658  4295
657  4495
656  4530
655  4655
654  4365
653  4005
652  4040
651  3950
650  3790
649  3510
648  3925
647  4030
646  4070
645  4045
644  3650
643  3710
642  3945
641  3840
640  3780
639  3735
638  3810
637  3750
636  4140
635  4120
634  4125
633  3725
632  3725
631  3795
630  3855
629  4095
628  3975
627  3900
626  4050
625  3980
624  3905
623  3895
622  3985
621  4005
620  3970
619  3990
618  4110
617  3975
616  3795
615  3920
614  4030
613  4150
612  3900
611  3920
610  3965
609  3970
608  4100
607  3885
606  4175
605  3915
604  3980
603  3920
602  4110
601  3905
600  4035
599  4185
598  4200
597  4025
596  4090
595  4060
594  3995
593  4120
592  4115
591  3945
590  4295
589  4355
588  3985
587  4165
586  3910
585  4115
584  4325
583  4345
582  4135
581  4300
580  4245
579  4065
578  4310
577  4105
576  4190
575  4220
574  4130
573  4210
572  4115
571  4200
570  4115
569  4210
568  4310
567  4135
566  4335
565  4095
564  4395
563  4185
562  4085
561  4135
560  4265
559  4700
558  4550
557  4240
556  4415
555  4270
554  4150
553  4465
552  4370
551  4565
550  4365
549  4725
548  4505
547  4700
546  4655
545  4290
544  4375
543  4225
542  4480
541  4320
540  4390
539  4165
538  4100
537  4210
536  4385
535  4255
534  4480
533  5120
532  6760
531  7885
530  6855
529  4875
528  4075
527  4065
526  4085
525  4110
524  4125
523  4260
522  4135
521  4460
520  4175
519  4560
518  4440
517  3945
516  4280
515  4230
514  4040
513  4235
512  3995
511  4230
510  4000
509  4180
508  4275
507  4190
506  4145
505  4300
504  4420
503  3930
502  3975
501  4395
500  4225
499  4135
498  4360
497  4515
496  4950
495  4845
494  4185
493  4000
492  4125
491  4065
490  4410
489  4645
488  4880
487  5320
486  4610
485  4190
484  4230
483  4090
482  4285
481  4310
480  4475
479  4185
478  4285
477  4200
476  4485
475  4095
474  4540
473  4730
472  4475
471  4475
470  4715
469  4405
468  4755
467  4405
466  4495
465  4625
464  4775
463  4395
462  4095
461  3865
460  4085
459  3925
458  3815
457  3905
456  4525
455  6290
454  10130
453  14950
452  12305
451  5880
450  3720
449  3525
448  4660
447  8725
446  16745
445  18825
444  11450
443  5145
442  3080
441  2495
440  2185
439  1950
438  1865
437  2260
436  2770
435  2840
434  2605
433  2150
432  1845
431  1460
430  1510
429  1390
428  1400
427  1350
426  1600
425  1270
424  1460
423  1505
422  1615
421  1475
420  1330
419  1420
418  1375
417  1370
416  1390
415  1305
414  1340
413  1370
412  1155
411  1245
410  1235
409  1520
408  1350
407  1305
406  1225
405  1320
404  1340
403  1325
402  1280
401  1345
400  1355
399  1280
398  1400
397  1420
396  1230
395  1290
394  1415
393  1350
392  1305
391  1485
390  1490
389  1345
388  1340
387  1325
386  1320
385  1365
384  1375
383  1345
382  1385
381  1370
380  1465
379  1515
378  1425
377  1415
376  1435
375  1300
374  1535
373  1170
372  1280
371  1235
370  1205
369  1120
368  1215
367  1200
366  1275
365  1070
364  1250
363  1120
362  1230
361  1300
360  1380
359  1165
358  1130
357  1380
356  1280
355  1135
354  1480
353  1220
352  1375
351  1235
350  1170
349  1140
348  1145
347  1310
346  1150
345  1145
344  1235
343  1280
342  1150
341  1250
340  1385
339  1265
338  1410
337  1295
336  1165
335  1320
334  1400
333  1210
332  1320
331  1230
330  1415
329  1295
328  1175
327  1185
326  1280
325  1360
324  1285
323  1290
322  1225
321  1365
320  1355
319  1310
318  1280
317  1195
316  1295
315  1125
314  1320
313  1325
312  1595
311  1290
310  1190
309  1360
308  1250
307  1315
306  1335
305  1195
304  1315
303  1245
302  1385
301  1385
300  1230
299  1370
298  1265
297  1385
296  1455
295  1280
294  1180
293  1290
292  1235
291  1355
290  1360
289  1440
288  1345
287  1425
286  1665
285  1495
284  1455
283  1380
282  1425
281  1220
280  1250
279  1430
278  1360
277  1310
276  1345
275  1230
274  1370
273  1250
272  1365
271  1380
270  1225
269  1380
268  1370
267  1295
266  1420
265  1360
264  1230
263  1270
262  1215
261  1390
260  1455
259  1290
258  1265
257  1235
256  1085
255  1330
254  1360
253  1285
252  1240
251  1200
250  1345
249  1390
248  1345
247  1465
246  1215
245  1510
244  1365
243  1450
242  1305
241  1345
240  1285
239  1180
238  1395
237  1350
236  1235
235  1240
234  1320
233  1375
232  1235
231  1200
230  1530
229  1265
228  1460
227  1320
226  1385
225  1325
224  1365
223  1335
222  1350
221  1315
220  1370
219  1320
218  1450
217  1450
216  1445
215  1305
214  1385
213  1350
212  1285
211  1515
210  1465
209  1240
208  1325
207  1325
206  1315
205  1435
204  1455
203  1375
202  1310
201  1515
200  1425
199  1525
198  1385
197  1390
196  1340
195  1340
194  1430
193  1545
192  1435
191  1405
190  1305
189  1500
188  1320
187  1380
186  1330
185  1425
184  1270
183  1450
182  1465
181  1510
180  1230
179  1555
178  1420
177  1440
176  1360
175  1345
174  1440
173  1465
172  1475
171  1520
170  1460
169  1310
168  1440
167  1195
166  1495
165  1390
164  1310
163  1550
162  1470
161  1700
160  1255
159  1440
158  1480
157  1530
156  1410
155  1460
154  1620
153  1350
152  1465
151  1435
150  1295
149  1485
148  1505
147  1525
146  1570
145  1495
144  1460
143  1530
142  1500
141  1570
140  1580
139  1535
138  1485
137  1485
136  1685
135  1430
134  1365
133  1325
132  1490
131  1415
130  1440
129  1465
128  1480
127  1725
126  1565
125  1595
124  1840
123  1880
122  1560
121  1545
120  1565
119  1490
118  1610
117  1505
116  1450
115  1390
114  1410
113  1375
112  1210
111  1450
110  1440
109  1400
108  1450
107  1405
106  1465
105  1525
104  1450
103  1420
102  1685
101  1355
100  1510
99  1645
98  1610
97  1655
96  1565
95  1520
94  1575
93  1500
92  1730
91  1735
90  1455
89  1520
88  1645
87  1825
86  1660
85  1655
84  1745
83  1725
82  1615
81  1875
80  1860
79  1680
78  1770
77  1700
76  1580
75  1565
74  1430
73  1340
72  1275
71  1400
70  1225
69  1285
68  1375
67  1330
66  1125
65  995
64  1140
63  1150
62  1160
61  1170
60  1145
59  1075
58  890
57  965
56  990
55  1125
54  1070
53  1105
52  1200
51  1070
50  1075
49  1140
48  1035
47  1215
46  1165
45  1140
44  1270
43  1135
42  1150
41  1050
40  1265
39  1230
38  1105
37  1140
36  1290
35  1025
34  1045
33  1090
32  890
31  1125
30  1165
29  1275
28  1310
27  1290
26  1365
25  1210
24  1200
23  1140
22  1295
21  1870
20  2980
19  4235
18  3755
17  2005
16  1075
15  915
14  890
13  755
12  780
11  855
10  1040
9  1130
8  1055
7  990
6  985
5  820
4  805
3  635
2  610
1  680
-2.2737368e-013  640
-1  580
-2  660
-3  540
-4  650

# Region:            In3d
# Acquisition Date:  08/23/22 07:58:47 UTC
# Analysis Method:   XPS
# Analyzer:          Phoibos 100 R6
# Analyzer Lens:     LargeArea:1.5kV
# Analyzer Slit:     1:0.2x20\B:open
# Scan Mode:         FixedAnalyzerTransmission
# Curves/Scan:       1
# Values/Curve:      231
# Dwell Time:        0.8
# Excitation Energy: 1486.61
# Binding Energy:    460
# Pass Energy:       30
# Bias Voltage:      90
# Detector Voltage:  2600
# Eff. Workfunction: 4.309
# Source:            X-Ray Dummy
# Comment:           
#
# Cycle: 0
# Number of Scans: 2
#
# Cycle: 0, Curve: 0
# Acquisition Date: 08/23/22 07:58:47 UTC
#
# ColumnLabels: energy counts/s
#
460  3310.625
459.9  3398.125
459.8  3269.375
459.7  3255
459.6  3251.25
459.5  3258.75
459.4  3323.125
459.3  3228.75
459.2  3275
459.1  3222.5
459  3146.875
458.9  3248.125
458.8  3191.875
458.7  3260
458.6  3098.75
458.5  3141.875
458.4  3225.625
458.3  3202.5
458.2  3147.5
458.1  3186.25
458  3136.25
457.9  3197.5
457.8  3151.25
457.7  3307.5
457.6  3210
457.5  3225.625
457.4  3249.375
457.3  3176.875
457.2  3253.125
457.1  3298.125
457  3336.875
456.9  3252.5
456.8  3243.125
456.7  3356.875
456.6  3366.875
456.5  3401.875
456.4  3403.75
456.3  3426.875
456.2  3491.25
456.1  3577.5
456  3585.625
455.9  3661.25
455.8  3703.75
455.7  3865.625
455.6  3977.5
455.5  4058.125
455.4  4116.25
455.3  4274.375
455.2  4508.125
455.1  4645
455  4888.75
454.9  5099.375
454.8  5332.5
454.7  5696.25
454.6  6016.875
454.5  6411.25
454.4  6913.125
454.3  7257.5
454.2  7664.375
454.1  8013.75
454  8558.75
453.9  9108.125
453.8  9473.75
453.7  10150.625
453.6  10583.125
453.5  11135.625
453.4  11577.5
453.3  12015.625
453.2  12370
453.1  12639.375
453  12814.375
452.9  12987.5
452.8  12995.625
452.7  12614.375
452.6  12685.625
452.5  12093.125
452.4  11693.75
452.3  11079.375
452.2  10470.625
452.1  9685.625
452  9149.375
451.9  8308.75
451.8  7428.125
451.7  6790
451.6  6089.375
451.5  5525
451.4  4974.375
451.3  4675.625
451.2  4246.25
451.1  3848.75
451  3671.875
450.9  3437.5
450.8  3235.625
450.7  3094.375
450.6  2986.875
450.5  2918.125
450.4  2905
450.3  2751.875
450.2  2815
450.1  2658.75
450  2681.25
449.9  2631.875
449.8  2568.75
449.7  2665.625
449.6  2570.625
449.5  2649.375
449.4  2712.5
449.3  2667.5
449.2  2726.875
449.1  2738.125
449  2748.125
448.9  2818.125
448.8  2860
448.7  2865.625
448.6  3072.5
448.5  3140.625
448.4  3175.625
448.3  3296.875
448.2  3558.125
448.1  3658.75
448  3790
447.9  3963.75
447.8  4216.875
447.7  4356.875
447.6  4600.625
447.5  4972.5
447.4  5308.75
447.3  5752.5
447.2  6271.875
447.1  6583.75
447  7161.875
446.9  7648.125
446.8  8276.25
446.7  8882.5
446.6  9673.75
446.5  10185
446.4  10864.375
446.3  11907.5
446.2  12505
446.1  13275.625
446  14031.25
445.9  14678.125
445.8  15473.125
445.7  15883.75
445.6  16355.625
445.5  16740
445.4  17035.625
445.3  17120
445.2  17036.875
445.1  16851.25
445  16371.875
444.9  15634.375
444.8  14903.125
444.7  13951.25
444.6  13126.875
444.5  12153.125
444.4  11203.125
444.3  9906.25
444.2  9032.5
444.1  8081.875
444  7207.5
443.9  6485.625
443.8  5752.5
443.7  5214.375
443.6  4773.125
443.5  4268.75
443.4  4030.625
443.3  3854.375
443.2  3701.875
443.1  3419.375
443  3308.125
442.9  3260.625
442.8  3047.5
442.7  3028.75
442.6  2810.625
442.5  2881.25
442.4  2738.125
442.3  2586.875
442.2  2571.25
442.1  2518.75
442  2425
441.9  2387.5
441.8  2278.75
441.7  2298.125
441.6  2202.5
441.5  2211.25
441.4  2135.625
441.3  2115
441.2  2036.875
441.1  2063.75
441  2075.625
440.9  1996.25
440.8  1995.625
440.7  1964.375
440.6  1918.125
440.5  1935.625
440.4  1850
440.3  1796.875
440.2  1823.75
440.1  1805
440  1686.25
439.9  1732.5
439.8  1674.375
439.7  1681.875
439.6  1615.625
439.5  1578.75
439.4  1571.25
439.3  1629.375
439.2  1603.75
439.1  1601.25
439  1488.125
438.9  1520.625
438.8  1513.75
438.7  1536.875
438.6  1523.125
438.5  1546.875
438.4  1490.625
438.3  1457.5
438.2  1538.75
438.1  1523.75
438  1475.625
437.9  1627.5
437.8  1545
437.7  1494.375
437.6  1599.375
437.5  1594.375
437.4  1669.375
437.3  1664.375
437.2  1703.125
437.1  1733.125
437  1741.875

# Region:            Sn3d
# Acquisition Date:  08/22/22 17:44:56 UTC
# Analysis Method:   XPS
# Analyzer:          Phoibos 100 R6
# Analyzer Lens:     LargeArea:1.5kV
# Analyzer Slit:     1:0.2x20\B:open
# Scan Mode:         FixedAnalyzerTransmission
# Curves/Scan:       1
# Values/Curve:      231
# Dwell Time:        0.8
# Excitation Energy: 1486.61
# Binding Energy:    503
# Pass Energy:       30
# Bias Voltage:      90
# Detector Voltage:  2600
# Eff. Workfunction: 4.309
# Source:            X-Ray Dummy
# Comment:           
#
# Cycle: 0
# Number of Scans: 1
#
# Cycle: 0, Curve: 0
# Acquisition Date: 08/22/22 17:44:56 UTC
#
# ColumnLabels: energy counts/s
#
503  3562.5
502.9  3490
502.8  3451.25
502.7  3657.5
502.6  3551.25
502.5  3496.25
502.4  3468.75
502.3  3590
502.2  3487.5
502.1  3617.5
502  3510
501.9  3618.75
501.8  3517.5
501.7  3525
501.6  3661.25
501.5  3602.5
501.4  3526.25
501.3  3615
501.2  3658.75
501.1  3581.25
501  3478.75
500.9  3511.25
500.8  3515
500.7  3482.5
500.6  3678.75
500.5  3586.25
500.4  3666.25
500.3  3460
500.2  3558.75
500.1  3491.25
500  3627.5
499.9  3615
499.8  3481.25
499.7  3556.25
499.6  3536.25
499.5  3557.5
499.4  3488.75
499.3  3495
499.2  3526.25
499.1  3508.75
499  3618.75
498.9  3702.5
498.8  3661.25
498.7  3593.75
498.6  3645
498.5  3532.5
498.4  3605
498.3  3671.25
498.2  3656.25
498.1  3595
498  3681.25
497.9  3717.5
497.8  3772.5
497.7  3676.25
497.6  3857.5
497.5  3881.25
497.4  3751.25
497.3  3783.75
497.2  3775
497.1  3885
497  3826.25
496.9  3870
496.8  3881.25
496.7  3987.5
496.6  3942.5
496.5  4058.75
496.4  4147.5
496.3  4026.25
496.2  4078.75
496.1  4191.25
496  4078.75
495.9  4097.5
495.8  4122.5
495.7  4276.25
495.6  4142.5
495.5  4058.75
495.4  4072.5
495.3  4091.25
495.2  4025
495.1  4020
495  3975
494.9  4022.5
494.8  3836.25
494.7  3723.75
494.6  3895
494.5  3711.25
494.4  3615
494.3  3601.25
494.2  3647.5
494.1  3683.75
494  3562.5
493.9  3620
493.8  3578.75
493.7  3531.25
493.6  3621.25
493.5  3511.25
493.4  3532.5
493.3  3498.75
493.2  3466.25
493.1  3488.75
493  3475
492.9  3517.5
492.8  3618.75
492.7  3386.25
492.6  3427.5
492.5  3573.75
492.4  3520
492.3  3582.5
492.2  3498.75
492.1  3362.5
492  3438.75
491.9  3568.75
491.8  3423.75
491.7  3585
491.6  3435
491.5  3557.5
491.4  3470
491.3  3472.5
491.2  3537.5
491.1  3548.75
491  3456.25
490.9  3510
490.8  3468.75
490.7  3451.25
490.6  3395
490.5  3570
490.4  3558.75
490.3  3473.75
490.2  3640
490.1  3482.5
490  3618.75
489.9  3540
489.8  3705
489.7  3671.25
489.6  3761.25
489.5  3647.5
489.4  3621.25
489.3  3587.5
489.2  3607.5
489.1  3791.25
489  3730
488.9  3877.5
488.8  3912.5
488.7  3998.75
488.6  4073.75
488.5  4063.75
488.4  4152.5
488.3  4173.75
488.2  3992.5
488.1  4001.25
488  4128.75
487.9  4232.5
487.8  4275
487.7  4347.5
487.6  4286.25
487.5  4366.25
487.4  4381.25
487.3  4387.5
487.2  4431.25
487.1  4326.25
487  4431.25
486.9  4243.75
486.8  4247.5
486.7  4310
486.6  4281.25
486.5  4173.75
486.4  4088.75
486.3  4052.5
486.2  3940
486.1  3875
486  3898.75
485.9  3757.5
485.8  3795
485.7  3820
485.6  3701.25
485.5  3711.25
485.4  3652.5
485.3  3667.5
485.2  3616.25
485.1  3621.25
485  3595
484.9  3687.5
484.8  3540
484.7  3566.25
484.6  3451.25
484.5  3526.25
484.4  3531.25
484.3  3423.75
484.2  3353.75
484.1  3433.75
484  3402.5
483.9  3363.75
483.8  3536.25
483.7  3462.5
483.6  3607.5
483.5  3506.25
483.4  3480
483.3  3523.75
483.2  3525
483.1  3542.5
483  3421.25
482.9  3473.75
482.8  3411.25
482.7  3462.5
482.6  3582.5
482.5  3587.5
482.4  3480
482.3  3396.25
482.2  3433.75
482.1  3496.25
482  3466.25
481.9  3446.25
481.8  3576.25
481.7  3402.5
481.6  3510
481.5  3566.25
481.4  3452.5
481.3  3477.5
481.2  3408.75
481.1  3455
481  3576.25
480.9  3591.25
480.8  3388.75
480.7  3493.75
480.6  3517.5
480.5  3482.5
480.4  3362.5
480.3  3410
480.2  3535
480.1  3538.75
480  3538.75

# Region:            O1s
# Acquisition Date:  08/22/22 22:43:28 UTC
# Analysis Method:   XPS
# Analyzer:          Phoibos 100 R6
# Analyzer Lens:     LargeArea:1.5kV
# Analyzer Slit:     1:0.2x20\B:open
# Scan Mode:         FixedAnalyzerTransmission
# Curves/Scan:       1
# Values/Curve:      141
# Dwell Time:        0.8
# Excitation Energy: 1486.61
# Binding Energy:    541
# Pass Energy:       30
# Bias Voltage:      90
# Detector Voltage:  2600
# Eff. Workfunction: 4.309
# Source:            X-Ray Dummy
# Comment:           
#
# Cycle: 0
# Number of Scans: 27
#
# Cycle: 0, Curve: 0
# Acquisition Date: 08/22/22 22:43:28 UTC
#
# ColumnLabels: energy counts/s
#
541  3796.2037
540.9  3769.6296
540.8  3792.0833
540.7  3796.8981
540.6  3787.4074
540.5  3794.9074
540.4  3797.8704
540.3  3764.9537
540.2  3767.6852
540.1  3762.963
540  3744.8611
539.9  3781.8519
539.8  3762.2222
539.7  3756.9907
539.6  3774.1204
539.5  3763.5648
539.4  3758.7963
539.3  3761.713
539.2  3735.3704
539.1  3773.8889
539  3739.8148
538.9  3731.0185
538.8  3737.8241
538.7  3733.1481
538.6  3736.2037
538.5  3733.8426
538.4  3746.0648
538.3  3785.5093
538.2  3730.4167
538.1  3759.5833
538  3712.1296
537.9  3719.7685
537.8  3715.8333
537.7  3741.713
537.6  3736.9444
537.5  3726.25
537.4  3731.6667
537.3  3721.2963
537.2  3745.4167
537.1  3708.8889
537  3716.2037
536.9  3724.7222
536.8  3711.713
536.7  3695.4167
536.6  3732.9167
536.5  3716.1574
536.4  3723.0556
536.3  3723.8889
536.2  3696.9907
536.1  3719.3981
536  3741.0185
535.9  3732.7778
535.8  3713.5185
535.7  3717.2222
535.6  3732.5463
535.5  3745.787
535.4  3745.0463
535.3  3732.1759
535.2  3760.1852
535.1  3774.8148
535  3803.9815
534.9  3811.0185
534.8  3852.963
534.7  3827.8241
534.6  3864.1204
534.5  3888.1481
534.4  3906.0185
534.3  3953.0093
534.2  3969.8611
534.1  4033.4722
534  4048.1481
533.9  4085.787
533.8  4111.2963
533.7  4170.9722
533.6  4223.7037
533.5  4293.8889
533.4  4341.25
533.3  4393.5648
533.2  4470.4167
533.1  4571.9907
533  4633.287
532.9  4697.037
532.8  4854.6759
532.7  4899.3981
532.6  5046.2037
532.5  5191.3889
532.4  5259.4444
532.3  5407.8241
532.2  5553.4259
532.1  5703.287
532  5884.4444
531.9  6040.2315
531.8  6186.1574
531.7  6383.5648
531.6  6559.1204
531.5  6694.5833
531.4  6851.4815
531.3  7010.2778
531.2  7107.2685
531.1  7203.0093
531  7271.3426
530.9  7288.3796
530.8  7250.8796
530.7  7185.5093
530.6  7104.2593
530.5  6955.4167
530.4  6716.3889
530.3  6470.6019
530.2  6272.5926
530.1  6002.2222
530  5722.1296
529.9  5460.463
529.8  5204.9074
529.7  4983.6574
529.6  4745.2315
529.5  4550.5556
529.4  4360.0926
529.3  4230.5093
529.2  4104.1667
529.1  4015.5093
529  3937.1759
528.9  3855.5556
528.8  3813.1944
528.7  3772.2222
528.6  3735.2315
528.5  3697.2222
528.4  3680.463
528.3  3679.0741
528.2  3650.8796
528.1  3644.4444
528  3625.6481
527.9  3622.9167
527.8  3613.3333
527.7  3627.1759
527.6  3595.5093
527.5  3594.1204
527.4  3622.037
527.3  3579.6296
527.2  3589.0278
527.1  3576.5741
527  3599.1204

# Region:            C1s
# Acquisition Date:  08/22/22 23:57:45 UTC
# Analysis Method:   XPS
# Analyzer:          Phoibos 100 R6
# Analyzer Lens:     LargeArea:1.5kV
# Analyzer Slit:     1:0.2x20\B:open
# Scan Mode:         FixedAnalyzerTransmission
# Curves/Scan:       1
# Values/Curve:      151
# Dwell Time:        0.8
# Excitation Energy: 1486.61
# Binding Energy:    295
# Pass Energy:       30
# Bias Voltage:      90
# Detector Voltage:  2600
# Eff. Workfunction: 4.309
# Source:            X-Ray Dummy
# Comment:           
#
# Cycle: 0
# Number of Scans: 40
#
# Cycle: 0, Curve: 0
# Acquisition Date: 08/22/22 23:57:45 UTC
#
# ColumnLabels: energy counts/s
#
295  969.28125
294.9  963.34375
294.8  977.34375
294.7  971.625
294.6  957.65625
294.5  963.3125
294.4  965.53125
294.3  982.65625
294.2  963.6875
294.1  974.46875
294  975.84375
293.9  969.6875
293.8  971.15625
293.7  973.46875
293.6  979.90625
293.5  974.125
293.4  967.25
293.3  980.0625
293.2  970.625
293.1  969.96875
293  972.53125
292.9  967.625
292.8  970.25
292.7  967.28125
292.6  966.4375
292.5  965.78125
292.4  965.90625
292.3  964.5
292.2  972.59375
292.1  985.34375
292  970.8125
291.9  966.40625
291.8  966.8125
291.7  969.96875
291.6  984.59375
291.5  976.5625
291.4  968.3125
291.3  972.375
291.2  964.3125
291.1  967.53125
291  964.34375
290.9  981.46875
290.8  981.5625
290.7  980.25
290.6  977.3125
290.5  982.65625
290.4  987.40625
290.3  990
290.2  1003.875
290.1  982.25
290  994.46875
289.9  994.375
289.8  986.03125
289.7  998.65625
289.6  998.34375
289.5  985.34375
289.4  1000.4063
289.3  1001.0313
289.2  1002.625
289.1  1001.8438
289  1009.7813
288.9  1017.9688
288.8  1025.125
288.7  1028.4375
288.6  1029.125
288.5  1032.2188
288.4  1040.5313
288.3  1043.2813
288.2  1045.3125
288.1  1068.4688
288  1054.375
287.9  1068.5938
287.8  1080.8438
287.7  1078
287.6  1095.5938
287.5  1101.3125
287.4  1100.2813
287.3  1111.0313
287.2  1125.4375
287.1  1127.0938
287  1118.7813
286.9  1121.7188
286.8  1134.4063
286.7  1135.8125
286.6  1126.0938
286.5  1140.3438
286.4  1127.625
286.3  1134.0938
286.2  1137.2813
286.1  1131.7188
286  1119
285.9  1126.875
285.8  1129.3125
285.7  1115.5938
285.6  1104.9063
285.5  1093.5938
285.4  1078.8438
285.3  1080.6563
285.2  1069.4063
285.1  1059.1875
285  1061.8438
284.9  1036.9375
284.8  1022.2813
284.7  1027.9375
284.6  1012.4688
284.5  1008.6875
284.4  993.1875
284.3  1015.0313
284.2  998.0625
284.1  986.125
284  992.125
283.9  976.3125
283.8  976.71875
283.7  974
283.6  978.15625
283.5  969.90625
283.4  976.21875
283.3  970.65625
283.2  966.75
283.1  963.46875
283  967
282.9  974.65625
282.8  966.96875
282.7  973.65625
282.6  966.1875
282.5  961.3125
282.4  956.4375
282.3  962.40625
282.2  971.0625
282.1  968.90625
282  961.3125
281.9  971.59375
281.8  970.5
281.7  967.84375
281.6  970.78125
281.5  962.53125
281.4  966.6875
281.3  972.40625
281.2  967.03125
281.1  970.6875
281  971.21875
280.9  968.03125
280.8  983.8125
280.7  965.5
280.6  956
280.5  978.53125
280.4  967.03125
280.3  967.6875
280.2  977.0625
280.1  962.78125
280  975.15625

# Region:            N1s
# Acquisition Date:  08/23/22 02:19:11 UTC
# Analysis Method:   XPS
# Analyzer:          Phoibos 100 R6
# Analyzer Lens:     LargeArea:1.5kV
# Analyzer Slit:     1:0.2x20\B:open
# Scan Mode:         FixedAnalyzerTransmission
# Curves/Scan:       1
# Values/Curve:      121
# Dwell Time:        0.8
# Excitation Energy: 1486.61
# Binding Energy:    409
# Pass Energy:       30
# Bias Voltage:      90
# Detector Voltage:  2600
# Eff. Workfunction: 4.309
# Source:            X-Ray Dummy
# Comment:           
#
# Cycle: 0
# Number of Scans: 78
#
# Cycle: 0, Curve: 0
# Acquisition Date: 08/23/22 02:19:11 UTC
#
# ColumnLabels: energy counts/s
#
409  1066.5865
408.9  1068.4615
408.8  1077.7404
408.7  1077.6442
408.6  1067.5
408.5  1075.2404
408.4  1072.8846
408.3  1078.3173
408.2  1074.1827
408.1  1081.5064
408  1074.9519
407.9  1078.5577
407.8  1078.6378
407.7  1073.6699
407.6  1072.6923
407.5  1076.5865
407.4  1077.0353
407.3  1075.3365
407.2  1072.7244
407.1  1072.5962
407  1080.3205
406.9  1078.6699
406.8  1079.2628
406.7  1067.6282
406.6  1077.0032
406.5  1069.6474
406.4  1078.0128
406.3  1075.1282
406.2  1073.6058
406.1  1072.6282
406  1077.6442
405.9  1070.1923
405.8  1076.266
405.7  1071.9712
405.6  1076.5385
405.5  1076.25
405.4  1067.9327
405.3  1077.4038
405.2  1076.4103
405.1  1074.9359
405  1074.1827
404.9  1069.6314
404.8  1075.8494
404.7  1083.5096
404.6  1072.8205
404.5  1080.609
404.4  1078.1891
404.3  1079.4231
404.2  1082.8846
404.1  1084.375
404  1076.875
403.9  1077.0994
403.8  1080.0962
403.7  1082.8045
403.6  1083.5577
403.5  1089.1346
403.4  1073.0288
403.3  1085.6571
403.2  1081.8429
403.1  1087.2596
403  1090.2244
402.9  1092.0994
402.8  1091.5385
402.7  1092.1955
402.6  1086.859
402.5  1100.2724
402.4  1089.0705
402.3  1089.4071
402.2  1096.9391
402.1  1098.5417
402  1094.4391
401.9  1105.4647
401.8  1091.6506
401.7  1101.0577
401.6  1095.4006
401.5  1100.9135
401.4  1110.3365
401.3  1105.641
401.2  1106.9872
401.1  1104.5673
401  1096.5545
400.9  1098.9263
400.8  1109.391
400.7  1102.4519
400.6  1103.0929
400.5  1099.6635
400.4  1099.1506
400.3  1108.5897
400.2  1099.8397
400.1  1099.8397
400  1101.1699
399.9  1098.9423
399.8  1092.0032
399.7  1092.7244
399.6  1094.0385
399.5  1094.4551
399.4  1092.9647
399.3  1086.891
399.2  1087.6763
399.1  1082.0994
399  1096.891
398.9  1084.0224
398.8  1079.0385
398.7  1086.9071
398.6  1076.5385
398.5  1072.2917
398.4  1077.4519
398.3  1080.2885
398.2  1065.1282
398.1  1073.0929
398  1068.3494
397.9  1072.6442
397.8  1068.3173
397.7  1079.6955
397.6  1077.0513
397.5  1076.9551
397.4  1078.6218
397.3  1069.4551
397.2  1070.2724
397.1  1073.8942
397  1069.6154

# Region:            Na1s
# Acquisition Date:  08/22/22 18:12:54 UTC
# Analysis Method:   XPS
# Analyzer:          Phoibos 100 R6
# Analyzer Lens:     LargeArea:1.5kV
# Analyzer Slit:     1:0.2x20\B:open
# Scan Mode:         FixedAnalyzerTransmission
# Curves/Scan:       1
# Values/Curve:      201
# Dwell Time:        0.8
# Excitation Energy: 1486.61
# Binding Energy:    1085
# Pass Energy:       30
# Bias Voltage:      90
# Detector Voltage:  2600
# Eff. Workfunction: 4.309
# Source:            X-Ray Dummy
# Comment:           
#
# Cycle: 0
# Number of Scans: 3
#
# Cycle: 0, Curve: 0
# Acquisition Date: 08/22/22 18:12:54 UTC
#
# ColumnLabels: energy counts/s
#
1085  12607.917
1084.9  12366.25
1084.8  12395.417
1084.7  12337.083
1084.6  12306.25
1084.5  12253.333
1084.4  11923.75
1084.3  11907.5
1084.2  11882.083
1084.1  11660.417
1084  11652.5
1083.9  11482.083
1083.8  11466.25
1083.7  11402.5
1083.6  11436.25
1083.5  11165.417
1083.4  11072.5
1083.3  11012.917
1083.2  10909.167
1083.1  10873.75
1083  10800.417
1082.9  10793.333
1082.8  10790.833
1082.7  10751.667
1082.6  10584.167
1082.5  10532.917
1082.4  10672.917
1082.3  10507.917
1082.2  10542.083
1082.1  10574.167
1082  10455
1081.9  10438.75
1081.8  10562.5
1081.7  10552.083
1081.6  10477.5
1081.5  10538.75
1081.4  10681.667
1081.3  10571.667
1081.2  10583.333
1081.1  10704.167
1081  10745.417
1080.9  10567.083
1080.8  10712.5
1080.7  10860.417
1080.6  10812.5
1080.5  10817.5
1080.4  10787.083
1080.3  10736.667
1080.2  10831.667
1080.1  10797.083
1080  10816.667
1079.9  10848.75
1079.8  10709.167
1079.7  10868.333
1079.6  10752.083
1079.5  10693.333
1079.4  10726.25
1079.3  10738.333
1079.2  10675.833
1079.1  10570.833
1079  10576.667
1078.9  10384.583
1078.8  10497.083
1078.7  10259.167
1078.6  10153.75
1078.5  10086.667
1078.4  9884.5833
1078.3  9967.9167
1078.2  9910
1078.1  9690
1078  9603.75
1077.9  9367.0833
1077.8  9362.5
1077.7  9218.75
1077.6  9095.8333
1077.5  9103.75
1077.4  8995.4167
1077.3  8914.5833
1077.2  8877.0833
1077.1  8665
1077  8663.3333
1076.9  8522.9167
1076.8  8479.1667
1076.7  8447.5
1076.6  8391.6667
1076.5  8314.1667
1076.4  8248.75
1076.3  8265.4167
1076.2  8097.5
1076.1  8041.6667
1076  8059.5833
1075.9  7929.5833
1075.8  7900
1075.7  7949.5833
1075.6  7860.4167
1075.5  7773.3333
1075.4  7663.3333
1075.3  7644.1667
1075.2  7587.0833
1075.1  7573.3333
1075  7503.3333
1074.9  7531.6667
1074.8  7446.25
1074.7  7471.25
1074.6  7405
1074.5  7419.5833
1074.4  7437.5
1074.3  7255.4167
1074.2  7275.4167
1074.1  7305.8333
1074  7214.1667
1073.9  7295.8333
1073.8  7208.75
1073.7  7187.9167
1073.6  7242.9167
1073.5  7225.4167
1073.4  7202.0833
1073.3  7240
1073.2  7218.75
1073.1  7289.5833
1073  7188.75
1072.9  7279.1667
1072.8  7273.75
1072.7  7245
1072.6  7155.4167
1072.5  7215.8333
1072.4  7150.8333
1072.3  7202.5
1072.2  7237.5
1072.1  7218.75
1072  7268.75
1071.9  7143.3333
1071.8  7130.8333
1071.7  7194.5833
1071.6  7192.0833
1071.5  7260.4167
1071.4  7205
1071.3  7230.8333
1071.2  7208.75
1071.1  7111.6667
1071  7220.4167
1070.9  7204.5833
1070.8  7189.1667
1070.7  7222.0833
1070.6  7332.0833
1070.5  7125
1070.4  7218.3333
1070.3  7203.3333
1070.2  7164.5833
1070.1  7187.5
1070  7418.75
1069.9  7201.25
1069.8  7259.5833
1069.7  7245.8333
1069.6  7235
1069.5  7278.3333
1069.4  7315.4167
1069.3  7078.3333
1069.2  7148.3333
1069.1  7181.25
1069  7248.75
1068.9  7211.6667
1068.8  7239.5833
1068.7  7188.3333
1068.6  7168.3333
1068.5  7256.25
1068.4  7266.6667
1068.3  7265
1068.2  7272.0833
1068.1  7235
1068  7167.5
1067.9  7389.5833
1067.8  7220.4167
1067.7  7203.3333
1067.6  7165.8333
1067.5  7263.75
1067.4  7244.1667
1067.3  7215.4167
1067.2  7246.6667
1067.1  7197.9167
1067  7207.5
1066.9  7176.6667
1066.8  7296.6667
1066.7  7295
1066.6  7109.5833
1066.5  7179.5833
1066.4  7319.5833
1066.3  7315.8333
1066.2  7142.9167
1066.1  7276.6667
1066  7204.5833
1065.9  7263.3333
1065.8  7126.25
1065.7  7135.8333
1065.6  7177.9167
1065.5  7260
1065.4  7177.9167
1065.3  7250.8333
1065.2  7166.25
1065.1  7165
1065  7160

# Region:            Si2p
# Acquisition Date:  08/23/22 01:46:24 UTC
# Analysis Method:   XPS
# Analyzer:          Phoibos 100 R6
# Analyzer Lens:     LargeArea:1.5kV
# Analyzer Slit:     1:0.2x20\B:open
# Scan Mode:         FixedAnalyzerTransmission
# Curves/Scan:       1
# Values/Curve:      261
# Dwell Time:        0.8
# Excitation Energy: 1486.61
# Binding Energy:    115
# Pass Energy:       30
# Bias Voltage:      90
# Detector Voltage:  2600
# Eff. Workfunction: 4.309
# Source:            X-Ray Dummy
# Comment:           
#
# Cycle: 0
# Number of Scans: 58
#
# Cycle: 0, Curve: 0
# Acquisition Date: 08/23/22 01:46:24 UTC
#
# ColumnLabels: energy counts/s
#
115  975.43103
114.9  977.30603
114.8  978.81466
114.7  979.69828
114.6  992.58621
114.5  981.37931
114.4  984.93534
114.3  978.125
114.2  983.1681
114.1  975.34483
114  973.57759
113.9  983.42672
113.8  979.07328
113.7  987.95259
113.6  985.25862
113.5  981.65948
113.4  967.34914
113.3  975.88362
113.2  978.21121
113.1  977.02586
113  979.35345
112.9  985.38793
112.8  977.30603
112.7  974.76293
112.6  969.39655
112.5  980.51724
112.4  973.53448
112.3  976.31466
112.2  977.97414
112.1  979.35345
112  967.88793
111.9  975.60345
111.8  972.73707
111.7  980.38793
111.6  966.57328
111.5  967.60776
111.4  967.39224
111.3  971.65948
111.2  978.29741
111.1  976.12069
111  972.43534
110.9  971.57328
110.8  970.75431
110.7  983.46983
110.6  963.57759
110.5  970.53879
110.4  965.06466
110.3  959.07328
110.2  966.98276
110.1  966.09914
110  965.86207
109.9  966.68103
109.8  974.22414
109.7  973.1681
109.6  972.19828
109.5  966.74569
109.4  969.67672
109.3  957.00431
109.2  969.4181
109.1  960.51724
109  974.82759
108.9  967.24138
108.8  970.30172
108.7  970.94828
108.6  972.60776
108.5  974.71983
108.4  976.07759
108.3  967.93103
108.2  987.15517
108.1  971.46552
108  977.21983
107.9  970.0431
107.8  977.78017
107.7  986.12069
107.6  969.78448
107.5  979.15948
107.4  980.68966
107.3  974.48276
107.2  977.90948
107.1  985.64655
107  972.13362
106.9  981.42241
106.8  975.6681
106.7  974.31034
106.6  980.15086
106.5  975.17241
106.4  975.84052
106.3  983.44828
106.2  987.06897
106.1  983.29741
106  975.86207
105.9  980.45259
105.8  982.86638
105.7  983.0819
105.6  982.32759
105.5  985.96983
105.4  983.62069
105.3  988.125
105.2  988.62069
105.1  991.42241
105  990.53879
104.9  988.83621
104.8  993.94397
104.7  982.52155
104.6  991.44397
104.5  986.72414
104.4  987.62931
104.3  998.55603
104.2  989.50431
104.1  991.12069
104  990.64655
103.9  991.25
103.8  1001.0991
103.7  986.07759
103.6  998.34052
103.5  997.4569
103.4  1006.6595
103.3  994.00862
103.2  1001.9612
103.1  1000.9698
103  992.24138
102.9  993.87931
102.8  996.05603
102.7  995.625
102.6  996.05603
102.5  992.69397
102.4  992.04741
102.3  994.54741
102.2  990
102.1  991.09914
102  991.9181
101.9  992.13362
101.8  995.90517
101.7  1009.4181
101.6  1000.7112
101.5  1005.0216
101.4  993.03879
101.3  987.37069
101.2  1008.6853
101.1  999.87069
101  996.72414
100.9  1000.7543
100.8  993.0819
100.7  990.21552
100.6  995.86207
100.5  1004.9353
100.4  1000.819
100.3  999.48276
100.2  999.09483
100.1  994.05172
100  1005.9914
99.9  1004.6121
99.8  994.39655
99.7  1001.1638
99.6  1011.2931
99.5  1005.0216
99.4  1005.3233
99.3  1004.806
99.2  1007.7155
99.1  1006.3362
99  1003.5776
98.9  1012.8017
98.8  1007.1983
98.7  1007.4138
98.6  1001.9612
98.5  1017.3922
98.4  1008.3405
98.3  1009.0733
98.2  1015.6681
98.1  1018.5345
98  1012.1767
97.9  1027.0043
97.8  1013.3836
97.7  1013.5129
97.6  1017.0043
97.5  1023.0603
97.4  1019.3966
97.3  1022.1121
97.2  1028.4267
97.1  1013.5776
97  1017.7371
96.9  1021.8103
96.8  1020.2155
96.7  1020.9914
96.6  1021.2069
96.5  1030.3879
96.4  1027.1552
96.3  1020.7759
96.2  1027.1121
96.1  1030.625
96  1029.181
95.9  1035.6466
95.8  1030.5819
95.7  1037.6509
95.6  1029.2888
95.5  1035.2155
95.4  1032.3491
95.3  1030.7328
95.2  1035.5172
95.1  1028.0388
95  1023.1466
94.9  1031.4871
94.8  1035.1724
94.7  1032.3276
94.6  1034.7845
94.5  1029.7198
94.4  1031.6164
94.3  1022.0043
94.2  1027.694
94.1  1027.2629
94  1041.1422
93.9  1040.9052
93.8  1028.0388
93.7  1035.819
93.6  1036.0345
93.5  1040.7974
93.4  1036.3362
93.3  1045.4957
93.2  1037.6078
93.1  1048.5991
93  1042.306
92.9  1041.3793
92.8  1049.2457
92.7  1044.9353
92.6  1052.2198
92.5  1050.2371
92.4  1051.0129
92.3  1053.5991
92.2  1048.1681
92.1  1046.5086
92  1056.5733
91.9  1054.1595
91.8  1055.431
91.7  1051.9181
91.6  1050.5819
91.5  1050.625
91.4  1048.8793
91.3  1070.3879
91.2  1051.6379
91.1  1063.6207
91  1063.556
90.9  1063.0172
90.8  1070.0216
90.7  1065.4526
90.6  1065.7759
90.5  1069.0948
90.4  1062.7155
90.3  1069.9569
90.2  1067.8664
90.1  1063.5129
90  1076.0991
89.9  1071.7241
89.8  1089.4828
89.7  1080.5388
89.6  1078.2543
89.5  1080.7543
89.4  1088.8578
89.3  1078.9009
89.2  1089.8707
89.1  1093.0819
89  1090.9914

# Region:            Zn2p
# Acquisition Date:  08/22/22 19:39:00 UTC
# Analysis Method:   XPS
# Analyzer:          Phoibos 100 R6
# Analyzer Lens:     LargeArea:1.5kV
# Analyzer Slit:     1:0.2x20\B:open
# Scan Mode:         FixedAnalyzerTransmission
# Curves/Scan:       1
# Values/Curve:      341
# Dwell Time:        0.8
# Excitation Energy: 1486.61
# Binding Energy:    1050
# Pass Energy:       30
# Bias Voltage:      90
# Detector Voltage:  2600
# Eff. Workfunction: 4.309
# Source:            X-Ray Dummy
# Comment:           
#
# Cycle: 0
# Number of Scans: 8
#
# Cycle: 0, Curve: 0
# Acquisition Date: 08/22/22 19:39:00 UTC
#
# ColumnLabels: energy counts/s
#
1050  6480.625
1049.9  6544.8438
1049.8  6452.0313
1049.7  6480.3125
1049.6  6540.4688
1049.5  6479.8438
1049.4  6475
1049.3  6479.0625
1049.2  6452.6563
1049.1  6430
1049  6443.9063
1048.9  6462.5
1048.8  6449.6875
1048.7  6390.9375
1048.6  6466.5625
1048.5  6413.125
1048.4  6459.0625
1048.3  6416.5625
1048.2  6392.0313
1048.1  6392.9688
1048  6452.6563
1047.9  6440.3125
1047.8  6384.0625
1047.7  6440.1563
1047.6  6425.9375
1047.5  6410.4688
1047.4  6435.1563
1047.3  6421.4063
1047.2  6455.7813
1047.1  6420
1047  6383.5938
1046.9  6434.6875
1046.8  6404.5313
1046.7  6424.6875
1046.6  6441.875
1046.5  6375.9375
1046.4  6381.875
1046.3  6424.8438
1046.2  6447.0313
1046.1  6407.9688
1046  6366.875
1045.9  6390.9375
1045.8  6427.1875
1045.7  6365.625
1045.6  6403.4375
1045.5  6355.1563
1045.4  6361.7188
1045.3  6422.9688
1045.2  6345.9375
1045.1  6421.7188
1045  6363.4375
1044.9  6399.0625
1044.8  6407.6563
1044.7  6368.4375
1044.6  6431.25
1044.5  6445.7813
1044.4  6410.9375
1044.3  6372.9688
1044.2  6414.2188
1044.1  6410
1044  6396.7188
1043.9  6355.1563
1043.8  6400.4688
1043.7  6415.3125
1043.6  6367.6563
1043.5  6338.75
1043.4  6373.125
1043.3  6304.2188
1043.2  6414.6875
1043.1  6383.5938
1043  6355.4688
1042.9  6385.4688
1042.8  6412.5
1042.7  6360.3125
1042.6  6384.0625
1042.5  6325.1563
1042.4  6359.2188
1042.3  6375.4688
1042.2  6394.8438
1042.1  6377.8125
1042  6321.5625
1041.9  6369.0625
1041.8  6355.9375
1041.7  6404.375
1041.6  6366.7188
1041.5  6412.5
1041.4  6350
1041.3  6382.9688
1041.2  6316.5625
1041.1  6348.2813
1041  6402.5
1040.9  6392.3438
1040.8  6424.375
1040.7  6351.25
1040.6  6427.8125
1040.5  6399.375
1040.4  6364.8438
1040.3  6328.9063
1040.2  6355.3125
1040.1  6452.8125
1040  6420.9375
1039.9  6406.25
1039.8  6404.5313
1039.7  6396.0938
1039.6  6392.5
1039.5  6350.7813
1039.4  6355.1563
1039.3  6429.2188
1039.2  6389.8438
1039.1  6383.9063
1039  6408.9063
1038.9  6342.3438
1038.8  6378.75
1038.7  6317.0313
1038.6  6370.7813
1038.5  6418.125
1038.4  6413.9063
1038.3  6360.625
1038.2  6353.75
1038.1  6407.1875
1038  6407.3438
1037.9  6379.2188
1037.8  6329.0625
1037.7  6367.6563
1037.6  6386.0938
1037.5  6370.4688
1037.4  6350.7813
1037.3  6349.8438
1037.2  6492.6563
1037.1  6379.2188
1037  6435.9375
1036.9  6335.7813
1036.8  6390.1563
1036.7  6383.2813
1036.6  6351.5625
1036.5  6382.1875
1036.4  6386.25
1036.3  6330
1036.2  6339.6875
1036.1  6372.8125
1036  6385.3125
1035.9  6319.6875
1035.8  6387.6563
1035.7  6409.0625
1035.6  6348.2813
1035.5  6381.0938
1035.4  6372.0313
1035.3  6320.7813
1035.2  6331.4063
1035.1  6395.7813
1035  6357.0313
1034.9  6352.8125
1034.8  6382.3438
1034.7  6399.6875
1034.6  6372.1875
1034.5  6420.4688
1034.4  6403.9063
1034.3  6380.9375
1034.2  6415.1563
1034.1  6387.5
1034  6403.125
1033.9  6378.75
1033.8  6358.2813
1033.7  6341.0938
1033.6  6354.2188
1033.5  6376.7188
1033.4  6404.2188
1033.3  6347.0313
1033.2  6358.9063
1033.1  6377.9688
1033  6400.4688
1032.9  6335.7813
1032.8  6471.0938
1032.7  6324.6875
1032.6  6412.5
1032.5  6381.875
1032.4  6345.7813
1032.3  6403.4375
1032.2  6396.5625
1032.1  6418.125
1032  6377.3438
1031.9  6419.6875
1031.8  6394.0625
1031.7  6327.8125
1031.6  6380.1563
1031.5  6419.5313
1031.4  6371.875
1031.3  6390
1031.2  6355.4688
1031.1  6361.7188
1031  6412.6563
1030.9  6405.625
1030.8  6343.2813
1030.7  6330.1563
1030.6  6420.1563
1030.5  6406.4063
1030.4  6322.5
1030.3  6342.3438
1030.2  6333.75
1030.1  6360.4688
1030  6366.7188
1029.9  6409.0625
1029.8  6394.6875
1029.7  6360.9375
1029.6  6394.0625
1029.5  6412.9688
1029.4  6349.375
1029.3  6390.1563
1029.2  6376.0938
1029.1  6385.7813
1029  6374.375
1028.9  6379.8438
1028.8  6348.4375
1028.7  6407.5
1028.6  6355
1028.5  6371.4063
1028.4  6365.7813
1028.3  6318.4375
1028.2  6341.875
1028.1  6390.1563
1028  6392.5
1027.9  6380
1027.8  6372.5
1027.7  6337.6563
1027.6  6364.5313
1027.5  6350.1563
1027.4  6371.5625
1027.3  6355.9375
1027.2  6359.6875
1027.1  6342.9688
1027  6397.9688
1026.9  6405.625
1026.8  6388.2813
1026.7  6333.4375
1026.6  6360
1026.5  6425.4688
1026.4  6340.1563
1026.3  6390.9375
1026.2  6443.125
1026.1  6350.3125
1026  6389.2188
1025.9  6347.3438
1025.8  6346.4063
1025.7  6354.375
1025.6  6351.25
1025.5  6376.25
1025.4  6382.3438
1025.3  6359.8438
1025.2  6387.5
1025.1  6343.5938
1025  6409.6875
1024.9  6368.5938
1024.8  6391.0938
1024.7  6365.1563
1024.6  6413.2813
1024.5  6392.9688
1024.4  6388.125
1024.3  6402.3438
1024.2  6372.8125
1024.1  6407.5
1024  6445.625
1023.9  6383.125
1023.8  6382.0313
1023.7  6371.25
1023.6  6329.2188
1023.5  6418.2813
1023.4  6334.8438
1023.3  6380.3125
1023.2  6433.9063
1023.1  6357.6563
1023  6344.8438
1022.9  6303.9063
1022.8  6409.375
1022.7  6362.8125
1022.6  6336.5625
1022.5  6426.875
1022.4  6344.5313
1022.3  6399.8438
1022.2  6349.375
1022.1  6356.4063
1022  6413.75
1021.9  6368.5938
1021.8  6343.5938
1021.7  6407.3438
1021.6  6352.9688
1021.5  6436.4063
1021.4  6357.9688
1021.3  6388.2813
1021.2  6371.0938
1021.1  6359.2188
1021  6359.5313
1020.9  6353.5938
1020.8  6365.3125
1020.7  6349.375
1020.6  6402.5
1020.5  6366.25
1020.4  6391.7188
1020.3  6321.7188
1020.2  6389.5313
1020.1  6444.6875
1020  6441.4063
1019.9  6446.25
1019.8  6411.875
1019.7  6355.9375
1019.6  6348.4375
1019.5  6332.1875
1019.4  6367.3438
1019.3  6338.9063
1019.2  6393.125
1019.1  6373.2813
1019  6397.9688
1018.9  6366.0938
1018.8  6409.2188
1018.7  6360.7813
1018.6  6403.2813
1018.5  6416.0938
1018.4  6420.3125
1018.3  6378.2813
1018.2  6375.625
1018.1  6430.7813
1018  6380.4688
1017.9  6396.0938
1017.8  6393.4375
1017.7  6482.0313
1017.6  6441.25
1017.5  6463.9063
1017.4  6456.4063
1017.3  6428.5938
1017.2  6411.5625
1017.1  6356.875
1017  6403.75
1016.9  6356.7188
1016.8  6380
1016.7  6419.8438
1016.6  6422.6563
1016.5  6470
1016.4  6428.125
1016.3  6333.9063
1016.2  6358.75
1016.1  6487.3438
1016  6434.375

# Region:            Ba3d
# Acquisition Date:  08/22/22 18:22:42 UTC
# Analysis Method:   XPS
# Analyzer:          Phoibos 100 R6
# Analyzer Lens:     LargeArea:1.5kV
# Analyzer Slit:     1:0.2x20\B:open
# Scan Mode:         FixedAnalyzerTransmission
# Curves/Scan:       1
# Values/Curve:      121
# Dwell Time:        0.8
# Excitation Energy: 1486.61
# Binding Energy:    789
# Pass Energy:       30
# Bias Voltage:      90
# Detector Voltage:  2600
# Eff. Workfunction: 4.309
# Source:            X-Ray Dummy
# Comment:           
#
# Cycle: 0
# Number of Scans: 3
#
# Cycle: 0, Curve: 0
# Acquisition Date: 08/22/22 18:22:42 UTC
#
# ColumnLabels: energy counts/s
#
789  5189.5833
788.9  5175
788.8  5313.75
788.7  5226.6667
788.6  5260.4167
788.5  5200.4167
788.4  5197.9167
788.3  5238.3333
788.2  5180.8333
788.1  5098.75
788  5170.8333
787.9  5226.25
787.8  5183.3333
787.7  5128.75
787.6  5180
787.5  5278.75
787.4  5225.4167
787.3  5189.1667
787.2  5295.8333
787.1  5242.5
787  5353.3333
786.9  5268.75
786.8  5272.5
786.7  5272.0833
786.6  5203.75
786.5  5235.4167
786.4  5182.9167
786.3  5312.0833
786.2  5189.1667
786.1  5166.25
786  5334.1667
785.9  5322.0833
785.8  5259.5833
785.7  5299.5833
785.6  5284.5833
785.5  5198.75
785.4  5202.0833
785.3  5209.1667
785.2  5271.25
785.1  5215.4167
785  5238.75
784.9  5292.9167
784.8  5166.25
784.7  5317.9167
784.6  5200.4167
784.5  5230
784.4  5299.1667
784.3  5249.5833
784.2  5270
784.1  5230.4167
784  5262.9167
783.9  5320.8333
783.8  5198.75
783.7  5177.5
783.6  5242.9167
783.5  5266.6667
783.4  5278.3333
783.3  5260
783.2  5226.25
783.1  5237.9167
783  5243.75
782.9  5258.3333
782.8  5302.5
782.7  5318.75
782.6  5276.6667
782.5  5190
782.4  5207.9167
782.3  5295.4167
782.2  5224.5833
782.1  5234.5833
782  5234.1667
781.9  5273.75
781.8  5258.3333
781.7  5196.25
781.6  5279.1667
781.5  5285
781.4  5182.0833
781.3  5332.5
781.2  5214.1667
781.1  5241.6667
781  5244.5833
780.9  5304.1667
780.8  5326.6667
780.7  5292.9167
780.6  5283.3333
780.5  5282.5
780.4  5272.5
780.3  5380.8333
780.2  5179.1667
780.1  5252.9167
780  5155.4167
779.9  5300.4167
779.8  5179.5833
779.7  5229.5833
779.6  5227.0833
779.5  5210
779.4  5200
779.3  5292.9167
779.2  5247.9167
779.1  5252.5
779  5239.5833
778.9  5298.3333
778.8  5250
778.7  5280
778.6  5200
778.5  5262.9167
778.4  5180
778.3  5246.6667
778.2  5290
778.1  5322.0833
778  5270.8333
777.9  5160.8333
777.8  5265.4167
777.7  5287.5
777.6  5208.75
777.5  5273.75
777.4  5265.4167
777.3  5227.9167
777.2  5245.8333
777.1  5190.8333
777  5223.3333

# Region:            Cl2p
# Acquisition Date:  08/22/22 20:33:43 UTC
# Analysis Method:   XPS
# Analyzer:          Phoibos 100 R6
# Analyzer Lens:     LargeArea:1.5kV
# Analyzer Slit:     1:0.2x20\B:open
# Scan Mode:         FixedAnalyzerTransmission
# Curves/Scan:       1
# Values/Curve:      111
# Dwell Time:        0.8
# Excitation Energy: 1486.61
# Binding Energy:    207
# Pass Energy:       30
# Bias Voltage:      90
# Detector Voltage:  2600
# Eff. Workfunction: 4.309
# Source:            X-Ray Dummy
# Comment:           
#
# Cycle: 0
# Number of Scans: 13
#
# Cycle: 0, Curve: 0
# Acquisition Date: 08/22/22 20:33:43 UTC
#
# ColumnLabels: energy counts/s
#
207  948.75
206.9  936.53846
206.8  959.71154
206.7  956.34615
206.6  942.98077
206.5  941.63462
206.4  949.32692
206.3  956.25
206.2  957.69231
206.1  966.44231
206  945.28846
205.9  955.96154
205.8  940.09615
205.7  939.61538
205.6  954.51923
205.5  960.86538
205.4  945.96154
205.3  964.23077
205.2  967.40385
205.1  955.19231
205  962.5
204.9  961.25
204.8  953.55769
204.7  957.21154
204.6  947.78846
204.5  955.96154
204.4  950.19231
204.3  961.53846
204.2  951.82692
204.1  962.40385
204  944.51923
203.9  954.32692
203.8  944.90385
203.7  946.73077
203.6  956.63462
203.5  963.55769
203.4  946.25
203.3  940.76923
203.2  964.71154
203.1  941.73077
203  971.63462
202.9  964.13462
202.8  979.32692
202.7  955.09615
202.6  963.55769
202.5  970.09615
202.4  959.80769
202.3  965.48077
202.2  958.36538
202.1  970.57692
202  970.57692
201.9  974.71154
201.8  974.03846
201.7  972.98077
201.6  969.32692
201.5  972.30769
201.4  992.30769
201.3  983.84615
201.2  976.92308
201.1  997.40385
201  978.65385
200.9  971.44231
200.8  984.61538
200.7  990.96154
200.6  1008.3654
200.5  992.11538
200.4  976.25
200.3  981.73077
200.2  1004.2308
200.1  1019.6154
200  998.26923
199.9  999.03846
199.8  1005.9615
199.7  1009.4231
199.6  1002.4038
199.5  1007.5
199.4  995.28846
199.3  1005
199.2  1009.4231
199.1  998.26923
199  1005.7692
198.9  992.69231
198.8  984.32692
198.7  983.46154
198.6  989.80769
198.5  989.51923
198.4  989.13462
198.3  988.17308
198.2  986.05769
198.1  978.55769
198  984.42308
197.9  985.28846
197.8  972.69231
197.7  959.23077
197.6  956.44231
197.5  959.61538
197.4  950.76923
197.3  954.51923
197.2  947.30769
197.1  965.38462
197  966.82692
196.9  949.03846
196.8  961.44231
196.7  954.61538
196.6  961.53846
196.5  944.42308
196.4  967.59615
196.3  954.90385
196.2  945.57692
196.1  952.21154
196  951.92308

# Region:            Ag3d
# Acquisition Date:  08/23/22 08:06:45 UTC
# Analysis Method:   XPS
# Analyzer:          Phoibos 100 R6
# Analyzer Lens:     LargeArea:1.5kV
# Analyzer Slit:     1:0.2x20\B:open
# Scan Mode:         FixedAnalyzerTransmission
# Curves/Scan:       1
# Values/Curve:      196
# Dwell Time:        0.8
# Excitation Energy: 1486.61
# Binding Energy:    390
# Pass Energy:       30
# Bias Voltage:      90
# Detector Voltage:  2600
# Eff. Workfunction: 4.309
# Source:            X-Ray Dummy
# Comment:           
#
# Cycle: 0
# Number of Scans: 4
#
# Cycle: 0, Curve: 0
# Acquisition Date: 08/23/22 08:06:45 UTC
#
# ColumnLabels: energy counts/s
#
390  1055.9375
389.9  1077.8125
389.8  1030
389.7  1049.375
389.6  1054.375
389.5  1096.5625
389.4  1048.4375
389.3  1037.5
389.2  1025.3125
389.1  1070.3125
389  1034.375
388.9  1072.8125
388.8  1040.625
388.7  1053.125
388.6  1041.25
388.5  1058.75
388.4  1055.9375
388.3  1041.875
388.2  1052.5
388.1  1010
388  1064.375
387.9  1053.75
387.8  1086.5625
387.7  1062.1875
387.6  1033.125
387.5  1044.6875
387.4  1068.75
387.3  1069.6875
387.2  1053.4375
387.1  1057.1875
387  1069.0625
386.9  1063.125
386.8  1085.625
386.7  1017.1875
386.6  1066.875
386.5  1080
386.4  1064.375
386.3  1060.625
386.2  1078.125
386.1  1078.125
386  1097.5
385.9  1085
385.8  1071.875
385.7  1066.5625
385.6  1069.6875
385.5  1077.5
385.4  1060.3125
385.3  1113.4375
385.2  1102.1875
385.1  1085.3125
385  1079.375
384.9  1085.625
384.8  1077.5
384.7  1062.5
384.6  1097.5
384.5  1098.125
384.4  1099.6875
384.3  1110.625
384.2  1121.25
384.1  1120.625
384  1116.5625
383.9  1099.375
383.8  1105.3125
383.7  1145
383.6  1102.1875
383.5  1163.125
383.4  1141.5625
383.3  1104.0625
383.2  1092.5
383.1  1117.8125
383  1126.5625
382.9  1107.8125
382.8  1127.1875
382.7  1164.6875
382.6  1115.3125
382.5  1135
382.4  1085
382.3  1152.5
382.2  1104.6875
382.1  1122.8125
382  1110.9375
381.9  1150.9375
381.8  1094.6875
381.7  1145.3125
381.6  1098.125
381.5  1140.3125
381.4  1111.25
381.3  1102.1875
381.2  1098.75
381.1  1103.4375
381  1135.625
380.9  1130.3125
380.8  1130.9375
380.7  1096.5625
380.6  1113.75
380.5  1094.0625
380.4  1089.0625
380.3  1125.3125
380.2  1073.75
380.1  1078.4375
380  1090.625
379.9  1061.875
379.8  1061.875
379.7  1093.4375
379.6  1059.375
379.5  1056.5625
379.4  1071.875
379.3  1074.375
379.2  1052.1875
379.1  1057.1875
379  1032.5
378.9  1034.6875
378.8  1081.25
378.7  1063.4375
378.6  1082.8125
378.5  1060
378.4  1054.375
378.3  1073.75
378.2  1055
378.1  1085.9375
378  1079.375
377.9  1098.75
377.8  1086.25
377.7  1126.25
377.6  1096.875
377.5  1088.75
377.4  1112.8125
377.3  1099.6875
377.2  1128.125
377.1  1140.625
377  1089.6875
376.9  1109.6875
376.8  1091.875
376.7  1094.0625
376.6  1105.3125
376.5  1125.9375
376.4  1132.8125
376.3  1122.5
376.2  1081.25
376.1  1111.875
376  1143.125
375.9  1109.375
375.8  1093.4375
375.7  1106.5625
375.6  1166.875
375.5  1166.875
375.4  1129.0625
375.3  1151.5625
375.2  1131.875
375.1  1103.4375
375  1115.3125
374.9  1125.625
374.8  1110.3125
374.7  1083.4375
374.6  1127.8125
374.5  1099.0625
374.4  1109.6875
374.3  1088.75
374.2  1116.875
374.1  1116.25
374  1120.9375
373.9  1075
373.8  1077.8125
373.7  1094.375
373.6  1121.5625
373.5  1122.5
373.4  1065
373.3  1060.625
373.2  1036.875
373.1  1031.25
373  1110
372.9  1057.8125
372.8  1065
372.7  1019.375
372.6  1030.3125
372.5  1025.9375
372.4  1002.5
372.3  1010.625
372.2  980.9375
372.1  996.25
372  986.5625
371.9  991.5625
371.8  947.1875
371.7  1001.25
371.6  968.75
371.5  998.125
371.4  986.5625
371.3  950.9375
371.2  982.8125
371.1  957.1875
371  962.5
370.9  936.5625
370.8  964.6875
370.7  986.25
370.6  981.875
370.5  970

# Group:             overview_HD
#
# Region:            overview
# Acquisition Date:  08/23/22 07:48:17 UTC
# Analysis Method:   XPS
# Analyzer:          Phoibos 100 R6
# Analyzer Lens:     LargeArea:1.5kV
# Analyzer Slit:     1:0.2x20\B:open
# Scan Mode:         FixedAnalyzerTransmission
# Curves/Scan:       1
# Values/Curve:      6021
# Dwell Time:        0.4
# Excitation Energy: 1486.61
# Binding Energy:    1200
# Pass Energy:       30
# Bias Voltage:      90
# Detector Voltage:  2600
# Eff. Workfunction: 4.309
# Source:            X-Ray Dummy
# Comment:           
#
# Cycle: 0
# Number of Scans: 8
#
# Cycle: 0, Curve: 0
# Acquisition Date: 08/23/22 07:48:17 UTC
#
# ColumnLabels: energy counts/s
#
1200  11016.25
1199.8  11078.75
1199.6  11067.5
1199.4  11118.438
1199.2  11122.813
1199  11079.688
1198.8  11050.938
1198.6  11085.625
1198.4  11020.625
1198.2  11071.563
1198  11135.938
1197.8  11090.938
1197.6  11150.938
1197.4  11138.438
1197.2  11127.188
1197  11142.188
1196.8  11174.063
1196.6  11112.188
1196.4  11234.375
1196.2  11174.063
1196  11164.688
1195.8  11180.313
1195.6  11206.563
1195.4  11268.75
1195.2  11256.25
1195  11195.313
1194.8  11276.875
1194.6  11310.313
1194.4  11234.063
1194.2  11209.688
1194  11250
1193.8  11397.5
1193.6  11212.188
1193.4  11400
1193.2  11312.813
1193  11432.188
1192.8  11310.313
1192.6  11320.625
1192.4  11342.188
1192.2  11264.063
1192  11351.875
1191.8  11346.875
1191.6  11330
1191.4  11243.438
1191.2  11274.688
1191  11290.313
1190.8  11289.063
1190.6  11327.813
1190.4  11150.625
1190.2  11228.75
1190  11165
1189.8  11159.375
1189.6  11190.313
1189.4  11112.5
1189.2  11097.813
1189  11080.313
1188.8  11069.063
1188.6  11156.563
1188.4  11078.125
1188.2  10981.25
1188  11011.563
1187.8  11100.625
1187.6  10972.5
1187.4  10962.188
1187.2  11004.063
1187  10973.438
1186.8  10982.188
1186.6  11072.5
1186.4  11010.313
1186.2  11027.188
1186  10974.063
1185.8  10956.563
1185.6  11008.125
1185.4  10968.75
1185.2  10862.813
1185  10814.063
1184.8  10875
1184.6  10937.188
1184.4  10779.375
1184.2  10756.875
1184  10735
1183.8  10792.188
1183.6  10748.125
1183.4  10806.875
1183.2  10789.063
1183  10729.375
1182.8  10814.375
1182.6  10760.313
1182.4  10678.438
1182.2  10769.375
1182  10601.875
1181.8  10493.125
1181.6  10670.625
1181.4  10661.875
1181.2  10622.813
1181  10622.5
1180.8  10677.813
1180.6  10566.875
1180.4  10584.688
1180.2  10534.375
1180  10659.063
1179.8  10606.563
1179.6  10605.625
1179.4  10618.125
1179.2  10528.75
1179  10645.938
1178.8  10594.688
1178.6  10603.125
1178.4  10626.563
1178.2  10533.75
1178  10677.5
1177.8  10515.313
1177.6  10547.813
1177.4  10561.563
1177.2  10690.625
1177  10551.563
1176.8  10482.5
1176.6  10560.625
1176.4  10578.438
1176.2  10555.313
1176  10564.688
1175.8  10626.25
1175.6  10582.5
1175.4  10704.375
1175.2  10481.563
1175  10606.563
1174.8  10610.313
1174.6  10546.875
1174.4  10629.375
1174.2  10570
1174  10735.313
1173.8  10602.188
1173.6  10654.063
1173.4  10643.438
1173.2  10656.875
1173  10720
1172.8  10651.25
1172.6  10587.5
1172.4  10740.938
1172.2  10627.813
1172  10657.188
1171.8  10598.438
1171.6  10522.5
1171.4  10692.813
1171.2  10685.625
1171  10656.25
1170.8  10690.938
1170.6  10645.625
1170.4  10582.813
1170.2  10754.375
1170  10753.75
1169.8  10685.938
1169.6  10739.375
1169.4  10680.938
1169.2  10720.938
1169  10678.75
1168.8  10704.375
1168.6  10644.688
1168.4  10738.125
1168.2  10680
1168  10735.313
1167.8  10704.375
1167.6  10744.375
1167.4  10687.813
1167.2  10659.375
1167  10580.313
1166.8  10776.563
1166.6  10697.5
1166.4  10772.5
1166.2  10722.188
1166  10718.125
1165.8  10640.313
1165.6  10766.563
1165.4  10810.938
1165.2  10922.5
1165  10670
1164.8  10794.688
1164.6  10775
1164.4  10735
1164.2  10752.188
1164  10858.125
1163.8  10819.688
1163.6  10870
1163.4  10915
1163.2  10793.125
1163  10769.375
1162.8  10903.125
1162.6  10845.313
1162.4  10710.625
1162.2  10894.688
1162  10796.875
1161.8  10729.063
1161.6  10786.563
1161.4  10831.875
1161.2  10916.25
1161  10710.313
1160.8  10663.438
1160.6  10889.375
1160.4  10805.938
1160.2  10954.063
1160  10893.75
1159.8  10907.5
1159.6  10901.563
1159.4  10910.313
1159.2  10843.125
1159  10876.875
1158.8  10825.938
1158.6  10843.125
1158.4  10949.688
1158.2  10968.125
1158  10890.625
1157.8  10815
1157.6  10740.625
1157.4  10943.125
1157.2  10918.438
1157  10765.938
1156.8  10869.688
1156.6  10833.75
1156.4  10879.063
1156.2  10932.813
1156  10930.938
1155.8  10789.375
1155.6  10841.563
1155.4  10923.75
1155.2  10845
1155  10931.25
1154.8  10901.25
1154.6  10869.688
1154.4  10706.25
1154.2  10831.875
1154  10883.438
1153.8  10815
1153.6  10777.5
1153.4  10868.125
1153.2  10838.75
1153  10787.5
1152.8  10783.75
1152.6  10881.25
1152.4  10822.813
1152.2  10802.813
1152  10811.563
1151.8  10829.688
1151.6  10834.375
1151.4  10765.625
1151.2  10788.125
1151  10748.75
1150.8  10859.063
1150.6  10784.688
1150.4  10623.75
1150.2  10679.688
1150  10646.563
1149.8  10714.688
1149.6  10839.063
1149.4  10761.563
1149.2  10654.063
1149  10589.063
1148.8  10583.75
1148.6  10779.375
1148.4  10714.688
1148.2  10655.313
1148  10802.188
1147.8  10648.438
1147.6  10651.25
1147.4  10729.375
1147.2  10648.75
1147  10769.063
1146.8  10595.625
1146.6  10585.313
1146.4  10612.813
1146.2  10680.313
1146  10544.375
1145.8  10534.375
1145.6  10519.688
1145.4  10654.063
1145.2  10547.813
1145  10494.063
1144.8  10486.563
1144.6  10454.063
1144.4  10557.188
1144.2  10510
1144  10502.813
1143.8  10459.375
1143.6  10326.875
1143.4  10427.5
1143.2  10341.25
1143  10296.563
1142.8  10324.688
1142.6  10219.688
1142.4  10260.625
1142.2  10174.688
1142  10164.688
1141.8  10226.563
1141.6  10065.938
1141.4  10050.938
1141.2  10034.063
1141  10150.313
1140.8  10140.625
1140.6  9924.375
1140.4  10041.875
1140.2  9972.5
1140  10002.188
1139.8  9958.75
1139.6  9847.8125
1139.4  9824.6875
1139.2  9884.375
1139  9800
1138.8  9803.125
1138.6  9704.375
1138.4  9653.4375
1138.2  9695.625
1138  9741.5625
1137.8  9708.4375
1137.6  9673.4375
1137.4  9561.875
1137.2  9553.4375
1137  9559.375
1136.8  9582.5
1136.6  9583.125
1136.4  9530
1136.2  9489.0625
1136  9483.4375
1135.8  9381.25
1135.6  9494.6875
1135.4  9422.8125
1135.2  9387.5
1135  9433.4375
1134.8  9235.625
1134.6  9408.75
1134.4  9336.5625
1134.2  9238.75
1134  9350
1133.8  9219.0625
1133.6  9184.6875
1133.4  9279.6875
1133.2  9136.5625
1133  9182.5
1132.8  9199.375
1132.6  9169.6875
1132.4  9102.8125
1132.2  9139.0625
1132  9040.9375
1131.8  9110
1131.6  9101.25
1131.4  9114.0625
1131.2  9115.625
1131  9094.6875
1130.8  9076.25
1130.6  9131.875
1130.4  9128.4375
1130.2  9105.625
1130  9009.0625
1129.8  8974.375
1129.6  9045
1129.4  9029.0625
1129.2  9044.375
1129  9057.8125
1128.8  8999.0625
1128.6  8975
1128.4  8946.5625
1128.2  9038.75
1128  9004.6875
1127.8  8865
1127.6  8892.8125
1127.4  9001.875
1127.2  8979.0625
1127  8851.5625
1126.8  8912.8125
1126.6  8871.5625
1126.4  8967.1875
1126.2  8965.9375
1126  8855
1125.8  8884.0625
1125.6  8931.5625
1125.4  8940.9375
1125.2  8931.25
1125  8894.375
1124.8  8859.0625
1124.6  9047.1875
1124.4  8914.375
1124.2  8883.125
1124  8911.5625
1123.8  8984.375
1123.6  8917.5
1123.4  8909.6875
1123.2  8890.9375
1123  8871.875
1122.8  8913.4375
1122.6  8842.5
1122.4  8866.875
1122.2  8913.4375
1122  8977.8125
1121.8  8848.125
1121.6  8939.375
1121.4  8848.4375
1121.2  8927.1875
1121  8937.8125
1120.8  8914.0625
1120.6  8997.1875
1120.4  8989.375
1120.2  8900.3125
1120  8913.75
1119.8  8850
1119.6  8984.375
1119.4  8890.9375
1119.2  8850.3125
1119  8997.5
1118.8  8966.25
1118.6  8954.0625
1118.4  9081.5625
1118.2  8870.9375
1118  8853.4375
1117.8  8922.8125
1117.6  8880.3125
1117.4  8984.6875
1117.2  8911.25
1117  8991.875
1116.8  8925
1116.6  8995.9375
1116.4  8953.75
1116.2  9082.1875
1116  8940
1115.8  9029.0625
1115.6  9114.6875
1115.4  9059.0625
1115.2  9009.0625
1115  9022.1875
1114.8  9002.5
1114.6  8991.5625
1114.4  9010.3125
1114.2  9136.5625
1114  8941.25
1113.8  9044.0625
1113.6  9044.6875
1113.4  9090.3125
1113.2  9050
1113  9083.125
1112.8  9001.25
1112.6  9131.875
1112.4  9010.3125
1112.2  9010
1112  9075.625
1111.8  9033.125
1111.6  8993.4375
1111.4  9108.75
1111.2  9165.625
1111  9171.5625
1110.8  9090.9375
1110.6  9061.5625
1110.4  9121.25
1110.2  9013.125
1110  9115.625
1109.8  9047.1875
1109.6  9061.5625
1109.4  8957.8125
1109.2  9031.5625
1109  9076.875
1108.8  9084.6875
1108.6  9032.5
1108.4  9187.5
1108.2  9134.0625
1108  9025.625
1107.8  9070
1107.6  9120.3125
1107.4  9175.625
1107.2  9184.6875
1107  9192.8125
1106.8  9000
1106.6  9193.75
1106.4  9089.375
1106.2  9237.8125
1106  9162.1875
1105.8  9145.3125
1105.6  9196.875
1105.4  9155.9375
1105.2  9211.875
1105  9135
1104.8  9128.75
1104.6  9196.25
1104.4  9158.75
1104.2  9186.875
1104  9162.8125
1103.8  9232.5
1103.6  9231.25
1103.4  9221.875
1103.2  9238.4375
1103  9238.75
1102.8  9216.5625
1102.6  9158.75
1102.4  9116.875
1102.2  9203.75
1102  9112.8125
1101.8  9229.6875
1101.6  9207.8125
1101.4  9153.75
1101.2  9109.375
1101  9177.5
1100.8  9125.9375
1100.6  9181.875
1100.4  9130.3125
1100.2  9227.5
1100  9124.375
1099.8  9245.9375
1099.6  9188.125
1099.4  9243.125
1099.2  9131.5625
1099  9248.4375
1098.8  9169.6875
1098.6  9228.75
1098.4  9210
1098.2  9255.3125
1098  9213.4375
1097.8  9277.8125
1097.6  9305
1097.4  9247.5
1097.2  9181.875
1097  9314.375
1096.8  9266.5625
1096.6  9111.5625
1096.4  9268.75
1096.2  9290.625
1096  9257.1875
1095.8  9227.1875
1095.6  9294.6875
1095.4  9202.5
1095.2  9269.6875
1095  9403.4375
1094.8  9328.4375
1094.6  9327.1875
1094.4  9388.75
1094.2  9502.8125
1094  9435.9375
1093.8  9563.4375
1093.6  9592.1875
1093.4  9571.875
1093.2  9594.375
1093  9581.875
1092.8  9602.1875
1092.6  9772.5
1092.4  9825.625
1092.2  9825.3125
1092  9901.875
1091.8  9890.625
1091.6  10004.375
1091.4  9943.75
1091.2  10144.063
1091  10225.938
1090.8  10279.688
1090.6  10353.75
1090.4  10368.438
1090.2  10529.375
1090  10648.75
1089.8  10970
1089.6  11150
1089.4  11224.688
1089.2  11560
1089  11671.875
1088.8  11883.125
1088.6  12102.813
1088.4  12398.75
1088.2  12610.625
1088  12742.188
1087.8  12880
1087.6  13038.125
1087.4  13140.938
1087.2  13241.875
1087  13438.125
1086.8  13240.625
1086.6  13426.25
1086.4  13386.875
1086.2  13303.75
1086  13111.25
1085.8  13128.125
1085.6  12996.875
1085.4  12785
1085.2  12683.125
1085  12374.375
1084.8  12219.063
1084.6  12129.688
1084.4  11805.625
1084.2  11627.5
1084  11443.438
1083.8  11308.75
1083.6  11169.375
1083.4  10845.625
1083.2  10798.75
1083  10582.813
1082.8  10631.25
1082.6  10600.313
1082.4  10473.438
1082.2  10403.75
1082  10365.313
1081.8  10557.188
1081.6  10445
1081.4  10555.938
1081.2  10534.375
1081  10627.5
1080.8  10583.125
1080.6  10733.125
1080.4  10764.063
1080.2  10787.5
1080  10713.438
1079.8  10693.438
1079.6  10608.75
1079.4  10615.938
1079.2  10515.313
1079  10412.188
1078.8  10373.125
1078.6  10130.938
1078.4  9988.4375
1078.2  9704.375
1078  9532.5
1077.8  9368.4375
1077.6  9170
1077.4  8841.25
1077.2  8742.1875
1077  8527.1875
1076.8  8423.4375
1076.6  8252.1875
1076.4  8058.4375
1076.2  8019.375
1076  7908.4375
1075.8  7830.3125
1075.6  7816.875
1075.4  7607.1875
1075.2  7562.8125
1075  7421.5625
1074.8  7359.375
1074.6  7326.5625
1074.4  7271.5625
1074.2  7268.75
1074  7219.375
1073.8  7290.3125
1073.6  7190.9375
1073.4  7100.3125
1073.2  7134.0625
1073  7141.5625
1072.8  7133.125
1072.6  7094.375
1072.4  7025
1072.2  7168.4375
1072  7000.9375
1071.8  7140.9375
1071.6  7078.4375
1071.4  7123.4375
1071.2  7041.5625
1071  7108.75
1070.8  7209.0625
1070.6  7124.375
1070.4  7131.875
1070.2  7089.6875
1070  7085.9375
1069.8  7137.8125
1069.6  7182.5
1069.4  7159.6875
1069.2  7174.6875
1069  7149.0625
1068.8  7160
1068.6  7121.875
1068.4  7138.125
1068.2  7185
1068  7098.125
1067.8  7174.375
1067.6  7165.625
1067.4  7049.0625
1067.2  7154.375
1067  7147.1875
1066.8  7133.75
1066.6  7183.125
1066.4  7139.375
1066.2  7173.125
1066  7183.125
1065.8  7097.5
1065.6  7062.5
1065.4  7095.625
1065.2  7114.0625
1065  7035.625
1064.8  7095.3125
1064.6  7081.875
1064.4  7062.8125
1064.2  7050
1064  7095
1063.8  7089.375
1063.6  7095.625
1063.4  7074.6875
1063.2  7093.125
1063  7125
1062.8  7131.875
1062.6  7104.375
1062.4  7099.375
1062.2  7147.8125
1062  7075
1061.8  7053.4375
1061.6  7135
1061.4  7029.6875
1061.2  7113.75
1061  7136.5625
1060.8  7119.6875
1060.6  7149.375
1060.4  7115.625
1060.2  7155
1060  7096.5625
1059.8  7014.6875
1059.6  7070.3125
1059.4  6998.4375
1059.2  6990.625
1059  7010
1058.8  7003.4375
1058.6  6957.5
1058.4  6920.9375
1058.2  6825.625
1058  6783.125
1057.8  6747.5
1057.6  6846.25
1057.4  6752.8125
1057.2  6662.8125
1057  6620.625
1056.8  6645.3125
1056.6  6722.8125
1056.4  6595.3125
1056.2  6616.5625
1056  6539.375
1055.8  6619.6875
1055.6  6539.6875
1055.4  6592.1875
1055.2  6535.625
1055  6610.9375
1054.8  6620
1054.6  6623.75
1054.4  6575
1054.2  6644.375
1054  6570.3125
1053.8  6663.75
1053.6  6691.25
1053.4  6614.375
1053.2  6624.0625
1053  6581.5625
1052.8  6603.125
1052.6  6561.25
1052.4  6626.25
1052.2  6611.25
1052  6547.5
1051.8  6430.3125
1051.6  6503.4375
1051.4  6375.625
1051.2  6449.6875
1051  6404.0625
1050.8  6396.5625
1050.6  6362.5
1050.4  6425.9375
1050.2  6470
1050  6386.25
1049.8  6400.3125
1049.6  6414.375
1049.4  6376.25
1049.2  6370
1049  6313.125
1048.8  6295.625
1048.6  6255.9375
1048.4  6281.875
1048.2  6334.0625
1048  6345.3125
1047.8  6296.5625
1047.6  6366.5625
1047.4  6342.8125
1047.2  6270.3125
1047  6318.125
1046.8  6303.125
1046.6  6293.75
1046.4  6400.625
1046.2  6224.0625
1046  6265.9375
1045.8  6155
1045.6  6275
1045.4  6327.1875
1045.2  6307.1875
1045  6356.875
1044.8  6323.75
1044.6  6263.75
1044.4  6306.25
1044.2  6345.625
1044  6236.875
1043.8  6284.375
1043.6  6289.0625
1043.4  6263.4375
1043.2  6312.1875
1043  6302.5
1042.8  6350
1042.6  6266.5625
1042.4  6322.1875
1042.2  6370.3125
1042  6295.625
1041.8  6268.75
1041.6  6358.125
1041.4  6303.75
1041.2  6271.875
1041  6273.125
1040.8  6271.5625
1040.6  6325
1040.4  6342.5
1040.2  6293.4375
1040  6231.875
1039.8  6283.4375
1039.6  6249.0625
1039.4  6335.625
1039.2  6332.5
1039  6270.625
1038.8  6314.6875
1038.6  6223.75
1038.4  6235.625
1038.2  6273.75
1038  6255.9375
1037.8  6301.25
1037.6  6255.625
1037.4  6315
1037.2  6304.375
1037  6310.9375
1036.8  6211.25
1036.6  6275
1036.4  6325.3125
1036.2  6259.375
1036  6294.375
1035.8  6221.875
1035.6  6296.5625
1035.4  6267.5
1035.2  6276.875
1035  6302.1875
1034.8  6302.8125
1034.6  6307.8125
1034.4  6299.0625
1034.2  6409.375
1034  6276.25
1033.8  6282.5
1033.6  6274.6875
1033.4  6366.25
1033.2  6314.0625
1033  6297.8125
1032.8  6254.375
1032.6  6280.9375
1032.4  6291.5625
1032.2  6235.3125
1032  6325.625
1031.8  6316.875
1031.6  6320.3125
1031.4  6271.5625
1031.2  6317.5
1031  6288.75
1030.8  6308.125
1030.6  6269.375
1030.4  6262.5
1030.2  6298.4375
1030  6228.125
1029.8  6229.0625
1029.6  6255
1029.4  6295.9375
1029.2  6271.875
1029  6343.125
1028.8  6259.6875
1028.6  6296.5625
1028.4  6293.4375
1028.2  6321.875
1028  6325.625
1027.8  6274.6875
1027.6  6310.9375
1027.4  6243.75
1027.2  6286.5625
1027  6296.875
1026.8  6264.375
1026.6  6295.3125
1026.4  6247.5
1026.2  6342.8125
1026  6365.9375
1025.8  6250.9375
1025.6  6319.6875
1025.4  6358.4375
1025.2  6223.75
1025  6318.125
1024.8  6295
1024.6  6318.4375
1024.4  6302.1875
1024.2  6302.8125
1024  6320
1023.8  6332.8125
1023.6  6262.8125
1023.4  6224.6875
1023.2  6280.3125
1023  6301.5625
1022.8  6285.9375
1022.6  6245.625
1022.4  6330
1022.2  6384.375
1022  6313.75
1021.8  6290.9375
1021.6  6328.4375
1021.4  6270.9375
1021.2  6305.3125
1021  6298.75
1020.8  6339.375
1020.6  6500
1020.4  6270
1020.2  6290.3125
1020  6273.75
1019.8  6265.625
1019.6  6230
1019.4  6271.5625
1019.2  6315.625
1019  6317.8125
1018.8  6299.375
1018.6  6253.4375
1018.4  6394.375
1018.2  6366.25
1018  6265
1017.8  6280.625
1017.6  6364.6875
1017.4  6358.75
1017.2  6313.125
1017  6313.125
1016.8  6297.1875
1016.6  6339.375
1016.4  6352.5
1016.2  6315.3125
1016  6299.6875
1015.8  6308.4375
1015.6  6338.4375
1015.4  6331.875
1015.2  6304.0625
1015  6343.75
1014.8  6391.875
1014.6  6371.875
1014.4  6345.3125
1014.2  6285.9375
1014  6427.5
1013.8  6320.3125
1013.6  6336.875
1013.4  6302.1875
1013.2  6341.875
1013  6444.375
1012.8  6244.375
1012.6  6426.25
1012.4  6362.8125
1012.2  6393.75
1012  6399.0625
1011.8  6422.1875
1011.6  6327.1875
1011.4  6387.8125
1011.2  6414.375
1011  6417.8125
1010.8  6420.625
1010.6  6397.5
1010.4  6455
1010.2  6450.9375
1010  6425
1009.8  6411.5625
1009.6  6473.125
1009.4  6385.3125
1009.2  6397.1875
1009  6492.1875
1008.8  6328.125
1008.6  6378.125
1008.4  6429.0625
1008.2  6385.625
1008  6392.5
1007.8  6360
1007.6  6339.375
1007.4  6345.9375
1007.2  6347.8125
1007  6393.4375
1006.8  6283.75
1006.6  6384.0625
1006.4  6272.1875
1006.2  6315
1006  6307.8125
1005.8  6269.375
1005.6  6312.8125
1005.4  6361.875
1005.2  6264.6875
1005  6255.9375
1004.8  6341.5625
1004.6  6313.75
1004.4  6363.125
1004.2  6379.0625
1004  6320.625
1003.8  6292.1875
1003.6  6352.5
1003.4  6331.875
1003.2  6286.25
1003  6377.1875
1002.8  6313.4375
1002.6  6308.4375
1002.4  6315
1002.2  6344.375
1002  6349.6875
1001.8  6462.5
1001.6  6390.9375
1001.4  6400
1001.2  6433.75
1001  6359.6875
1000.8  6399.375
1000.6  6438.4375
1000.4  6423.125
1000.2  6458.75
1000  6460
999.8  6433.75
999.6  6393.75
999.4  6480.625
999.2  6534.375
999  6463.125
998.8  6499.6875
998.6  6530
998.4  6448.75
998.2  6514.6875
998  6489.375
997.8  6552.5
997.6  6596.5625
997.4  6585.3125
997.2  6655.9375
997  6575.9375
996.8  6564.6875
996.6  6531.5625
996.4  6715.9375
996.2  6621.25
996  6692.5
995.8  6638.4375
995.6  6673.125
995.4  6599.6875
995.2  6616.875
995  6701.5625
994.8  6664.0625
994.6  6637.8125
994.4  6585.625
994.2  6653.4375
994  6559.0625
993.8  6643.125
993.6  6581.5625
993.4  6497.1875
993.2  6558.125
993  6516.5625
992.8  6419.6875
992.6  6438.4375
992.4  6457.5
992.2  6484.6875
992  6437.8125
991.8  6427.1875
991.6  6383.75
991.4  6300.9375
991.2  6455
991  6343.4375
990.8  6322.1875
990.6  6386.5625
990.4  6397.5
990.2  6348.125
990  6308.125
989.8  6245.9375
989.6  6386.875
989.4  6396.25
989.2  6446.5625
989  6316.25
988.8  6365.3125
988.6  6370.9375
988.4  6339.375
988.2  6374.6875
988  6345
987.8  6275.625
987.6  6276.25
987.4  6297.1875
987.2  6314.0625
987  6280.9375
986.8  6184.6875
986.6  6274.0625
986.4  6279.0625
986.2  6213.125
986  6218.75
985.8  6302.8125
985.6  6256.875
985.4  6212.8125
985.2  6229.375
985  6208.4375
984.8  6237.8125
984.6  6285.625
984.4  6259.0625
984.2  6262.5
984  6219.375
983.8  6258.4375
983.6  6212.8125
983.4  6200.9375
983.2  6235.3125
983  6303.75
982.8  6151.5625
982.6  6265.3125
982.4  6234.0625
982.2  6160.9375
982  6203.75
981.8  6250.625
981.6  6257.5
981.4  6220.3125
981.2  6310.9375
981  6138.75
980.8  6223.75
980.6  6175
980.4  6183.125
980.2  6330
980  6226.25
979.8  6272.8125
979.6  6362.5
979.4  6278.4375
979.2  6317.5
979  6344.375
978.8  6411.875
978.6  6390.9375
978.4  6431.875
978.2  6395.9375
978  6531.25
977.8  6594.6875
977.6  6636.25
977.4  6708.4375
977.2  6779.375
977  6835.625
976.8  6955.9375
976.6  7028.125
976.4  7161.25
976.2  7260.625
976  7385.9375
975.8  7421.875
975.6  7370.3125
975.4  7481.5625
975.2  7522.1875
975  7631.5625
974.8  7630.9375
974.6  7560.625
974.4  7539.0625
974.2  7421.875
974  7434.6875
973.8  7303.4375
973.6  7277.8125
973.4  7014.6875
973.2  7028.75
973  6898.4375
972.8  6745
972.6  6697.8125
972.4  6607.8125
972.2  6527.8125
972  6465
971.8  6468.75
971.6  6374.375
971.4  6427.8125
971.2  6339.375
971  6273.75
970.8  6196.5625
970.6  6322.1875
970.4  6303.125
970.2  6200.3125
970  6205.3125
969.8  6217.1875
969.6  6174.6875
969.4  6163.125
969.2  6090.9375
969  6082.8125
968.8  6055.9375
968.6  5975
968.4  5998.125
968.2  5978.75
968  5912.8125
967.8  5971.5625
967.6  5987.5
967.4  5928.75
967.2  5967.5
967  5862.1875
966.8  5918.4375
966.6  5864.6875
966.4  5899.0625
966.2  5859.6875
966  5824.0625
965.8  5805.625
965.6  5786.5625
965.4  5666.5625
965.2  5691.25
965  5710.9375
964.8  5667.1875
964.6  5603.125
964.4  5620.625
964.2  5705.3125
964  5580.625
963.8  5652.1875
963.6  5682.1875
963.4  5610
963.2  5658.75
963  5606.5625
962.8  5560
962.6  5682.1875
962.4  5608.4375
962.2  5616.5625
962  5625
961.8  5605
961.6  5682.5
961.4  5648.125
961.2  5638.4375
961  5668.125
960.8  5595
960.6  5615.9375
960.4  5635.625
960.2  5590
960  5658.125
959.8  5610.9375
959.6  5546.25
959.4  5633.125
959.2  5534.0625
959  5609.0625
958.8  5547.8125
958.6  5544.6875
958.4  5641.5625
958.2  5622.1875
958  5569.6875
957.8  5547.1875
957.6  5607.8125
957.4  5558.4375
957.2  5594.0625
957  5599.375
956.8  5579.0625
956.6  5593.75
956.4  5680.3125
956.2  5561.25
956  5610.625
955.8  5619.375
955.6  5520
955.4  5577.1875
955.2  5550.625
955  5632.8125
954.8  5573.4375
954.6  5610.625
954.4  5625.625
954.2  5545
954  5611.25
953.8  5617.1875
953.6  5604.375
953.4  5587.8125
953.2  5618.125
953  5593.75
952.8  5549.0625
952.6  5578.125
952.4  5620.9375
952.2  5580.9375
952  5583.75
951.8  5520.3125
951.6  5548.75
951.4  5589.375
951.2  5544.375
951  5550.625
950.8  5516.875
950.6  5594.0625
950.4  5599.0625
950.2  5577.1875
950  5628.75
949.8  5609.6875
949.6  5601.875
949.4  5590
949.2  5606.5625
949  5598.4375
948.8  5558.75
948.6  5533.4375
948.4  5557.8125
948.2  5566.25
948  5645
947.8  5555.9375
947.6  5613.4375
947.4  5555.3125
947.2  5563.75
947  5621.875
946.8  5613.4375
946.6  5574.0625
946.4  5603.125
946.2  5526.875
946  5592.5
945.8  5545
945.6  5595.625
945.4  5583.75
945.2  5525
945  5544.375
944.8  5528.75
944.6  5564.6875
944.4  5512.1875
944.2  5617.1875
944  5635.3125
943.8  5576.875
943.6  5525
943.4  5555.9375
943.2  5611.5625
943  5567.5
942.8  5574.375
942.6  5587.8125
942.4  5621.875
942.2  5598.125
942  5597.1875
941.8  5552.8125
941.6  5616.25
941.4  5618.125
941.2  5555.9375
941  5569.6875
940.8  5577.8125
940.6  5595.625
940.4  5569.0625
940.2  5619.375
940  5619.375
939.8  5557.5
939.6  5568.125
939.4  5521.25
939.2  5544.375
939  5648.4375
938.8  5519.6875
938.6  5576.25
938.4  5663.125
938.2  5651.875
938  5623.125
937.8  5657.5
937.6  5541.25
937.4  5589.0625
937.2  5512.5
937  5590.3125
936.8  5583.75
936.6  5525.625
936.4  5533.4375
936.2  5556.875
936  5572.8125
935.8  5593.125
935.6  5590.625
935.4  5624.6875
935.2  5560.625
935  5539.375
934.8  5572.8125
934.6  5570.3125
934.4  5597.8125
934.2  5570.9375
934  5650.625
933.8  5530
933.6  5604.0625
933.4  5527.1875
933.2  5627.5
933  5517.8125
932.8  5529.6875
932.6  5622.5
932.4  5538.125
932.2  5608.75
932  5520
931.8  5594.375
931.6  5637.8125
931.4  5633.4375
931.2  5592.1875
931  5540
930.8  5573.75
930.6  5656.25
930.4  5563.4375
930.2  5546.875
930  5551.875
929.8  5555.9375
929.6  5610.625
929.4  5540.3125
929.2  5493.125
929  5546.875
928.8  5719.0625
928.6  5566.875
928.4  5618.4375
928.2  5581.25
928  5598.4375
927.8  5553.75
927.6  5563.75
927.4  5595.3125
927.2  5617.8125
927  5498.4375
926.8  5588.4375
926.6  5616.5625
926.4  5553.75
926.2  5533.125
926  5619.6875
925.8  5560
925.6  5591.875
925.4  5597.5
925.2  5471.5625
925  5548.75
924.8  5569.375
924.6  5555.3125
924.4  5562.1875
924.2  5539.375
924  5536.5625
923.8  5504.6875
923.6  5570.3125
923.4  5639.375
923.2  5632.1875
923  5473.75
922.8  5596.5625
922.6  5605.625
922.4  5578.75
922.2  5524.375
922  5577.1875
921.8  5527.5
921.6  5525.9375
921.4  5548.125
921.2  5584.6875
921  5525
920.8  5522.5
920.6  5594.6875
920.4  5552.5
920.2  5612.5
920  5551.5625
919.8  5580.3125
919.6  5515
919.4  5541.875
919.2  5551.875
919  5587.1875
918.8  5570.625
918.6  5526.875
918.4  5501.5625
918.2  5482.5
918  5566.875
917.8  5539.6875
917.6  5512.1875
917.4  5499.0625
917.2  5466.25
917  5520
916.8  5548.125
916.6  5589.375
916.4  5565
916.2  5442.1875
916  5436.875
915.8  5523.125
915.6  5595.9375
915.4  5466.25
915.2  5490.9375
915  5557.5
914.8  5449.0625
914.6  5525.3125
914.4  5615.3125
914.2  5491.5625
914  5452.1875
913.8  5527.1875
913.6  5475.9375
913.4  5544.6875
913.2  5484.0625
913  5549.0625
912.8  5505.625
912.6  5440.3125
912.4  5514.0625
912.2  5585.9375
912  5490
911.8  5445.9375
911.6  5550.625
911.4  5585
911.2  5506.25
911  5511.5625
910.8  5500
910.6  5528.75
910.4  5506.25
910.2  5487.5
910  5449.375
909.8  5526.875
909.6  5542.5
909.4  5537.5
909.2  5484.375
909  5598.4375
908.8  5504.0625
908.6  5515.625
908.4  5571.25
908.2  5479.375
908  5453.4375
907.8  5604.375
907.6  5596.5625
907.4  5535
907.2  5465
907  5525.9375
906.8  5620
906.6  5512.5
906.4  5537.5
906.2  5551.875
906  5522.5
905.8  5529.0625
905.6  5556.875
905.4  5466.5625
905.2  5504.0625
905  5510
904.8  5551.5625
904.6  5470
904.4  5487.5
904.2  5499.375
904  5508.75
903.8  5468.4375
903.6  5490.9375
903.4  5527.1875
903.2  5590
903  5536.25
902.8  5530
902.6  5415.9375
902.4  5569.375
902.2  5439.375
902  5550.625
901.8  5552.8125
901.6  5588.125
901.4  5535.625
901.2  5586.875
901  5553.125
900.8  5513.4375
900.6  5504.375
900.4  5609.375
900.2  5520.9375
900  5446.25
899.8  5470.625
899.6  5612.5
899.4  5558.4375
899.2  5495.9375
899  5613.75
898.8  5538.125
898.6  5492.5
898.4  5504.6875
898.2  5540
898  5586.875
897.8  5476.875
897.6  5455.625
897.4  5499.6875
897.2  5534.375
897  5555.3125
896.8  5549.375
896.6  5534.0625
896.4  5510.625
896.2  5518.125
896  5514.0625
895.8  5578.75
895.6  5491.5625
895.4  5463.75
895.2  5470.625
895  5506.875
894.8  5532.8125
894.6  5528.75
894.4  5458.4375
894.2  5608.125
894  5488.125
893.8  5485.9375
893.6  5506.875
893.4  5539.0625
893.2  5448.125
893  5457.5
892.8  5482.8125
892.6  5419.0625
892.4  5526.25
892.2  5435.9375
892  5459.0625
891.8  5477.5
891.6  5605
891.4  5473.4375
891.2  5468.125
891  5484.375
890.8  5479.375
890.6  5464.375
890.4  5467.5
890.2  5542.8125
890  5449.6875
889.8  5507.1875
889.6  5529.375
889.4  5467.5
889.2  5538.4375
889  5495.9375
888.8  5542.5
888.6  5493.125
888.4  5480.3125
888.2  5505.625
888  5485.3125
887.8  5432.1875
887.6  5435
887.4  5491.25
887.2  5477.1875
887  5533.4375
886.8  5544.0625
886.6  5477.1875
886.4  5543.4375
886.2  5449.0625
886  5520
885.8  5460.9375
885.6  5449.375
885.4  5524.6875
885.2  5508.125
885  5470
884.8  5513.4375
884.6  5449.6875
884.4  5510.3125
884.2  5408.75
884  5500.3125
883.8  5380.625
883.6  5523.75
883.4  5401.25
883.2  5543.125
883  5501.5625
882.8  5558.4375
882.6  5454.6875
882.4  5476.5625
882.2  5534.6875
882  5531.875
881.8  5398.75
881.6  5521.875
881.4  5396.25
881.2  5390.9375
881  5406.875
880.8  5452.5
880.6  5400.625
880.4  5473.4375
880.2  5436.875
880  5400.9375
879.8  5500.9375
879.6  5454.375
879.4  5475.9375
879.2  5487.5
879  5474.0625
878.8  5458.125
878.6  5489.6875
878.4  5400
878.2  5420.625
878  5465.625
877.8  5526.5625
877.6  5475
877.4  5420.625
877.2  5363.125
877  5503.125
876.8  5438.75
876.6  5445
876.4  5449.6875
876.2  5426.5625
876  5437.1875
875.8  5400.625
875.6  5460
875.4  5390.3125
875.2  5478.125
875  5354.6875
874.8  5446.875
874.6  5387.8125
874.4  5539.0625
874.2  5475.3125
874  5362.5
873.8  5396.875
873.6  5420.625
873.4  5467.8125
873.2  5479.375
873  5433.4375
872.8  5425.9375
872.6  5426.25
872.4  5441.25
872.2  5464.0625
872  5458.125
871.8  5472.8125
871.6  5508.4375
871.4  5438.75
871.2  5436.5625
871  5478.125
870.8  5440
870.6  5466.875
870.4  5401.5625
870.2  5394.6875
870  5398.4375
869.8  5410.9375
869.6  5453.125
869.4  5468.4375
869.2  5505.9375
869  5385.625
868.8  5438.125
868.6  5421.25
868.4  5419.6875
868.2  5482.1875
868  5351.25
867.8  5390.625
867.6  5478.75
867.4  5422.1875
867.2  5541.25
867  5456.25
866.8  5452.5
866.6  5454.6875
866.4  5452.1875
866.2  5395.3125
866  5447.8125
865.8  5439.375
865.6  5374.0625
865.4  5465.625
865.2  5476.875
865  5440
864.8  5425.625
864.6  5458.75
864.4  5451.5625
864.2  5557.1875
864  5401.5625
863.8  5393.4375
863.6  5473.75
863.4  5509.0625
863.2  5437.5
863  5390.3125
862.8  5422.1875
862.6  5404.0625
862.4  5464.6875
862.2  5486.875
862  5452.5
861.8  5440.625
861.6  5463.4375
861.4  5400
861.2  5471.875
861  5434.0625
860.8  5472.5
860.6  5401.25
860.4  5456.875
860.2  5440.625
860  5382.1875
859.8  5481.25
859.6  5380.9375
859.4  5455.9375
859.2  5474.375
859  5414.6875
858.8  5442.8125
858.6  5485
858.4  5318.125
858.2  5471.25
858  5441.25
857.8  5423.75
857.6  5461.25
857.4  5370
857.2  5461.5625
857  5414.0625
856.8  5430.625
856.6  5465.9375
856.4  5458.75
856.2  5445.3125
856  5455.625
855.8  5388.75
855.6  5472.1875
855.4  5481.25
855.2  5515.9375
855  5439.375
854.8  5435.3125
854.6  5499.6875
854.4  5446.5625
854.2  5359.6875
854  5465
853.8  5511.5625
853.6  5431.875
853.4  5471.5625
853.2  5467.5
853  5470.3125
852.8  5445
852.6  5514.375
852.4  5462.5
852.2  5429.0625
852  5450.625
851.8  5457.8125
851.6  5456.5625
851.4  5501.5625
851.2  5500.9375
851  5493.75
850.8  5418.125
850.6  5425
850.4  5505.625
850.2  5542.8125
850  5500
849.8  5465.3125
849.6  5514.6875
849.4  5456.5625
849.2  5438.75
849  5462.1875
848.8  5430.3125
848.6  5401.5625
848.4  5520.3125
848.2  5480.3125
848  5469.6875
847.8  5436.5625
847.6  5492.1875
847.4  5452.8125
847.2  5512.5
847  5416.875
846.8  5462.1875
846.6  5442.5
846.4  5429.6875
846.2  5494.6875
846  5550
845.8  5498.4375
845.6  5475.3125
845.4  5522.1875
845.2  5505
845  5438.75
844.8  5515
844.6  5517.8125
844.4  5457.8125
844.2  5533.4375
844  5463.4375
843.8  5470.9375
843.6  5487.8125
843.4  5471.5625
843.2  5531.25
843  5555.3125
842.8  5569.6875
842.6  5492.5
842.4  5505.9375
842.2  5499.0625
842  5510.625
841.8  5483.75
841.6  5442.1875
841.4  5477.5
841.2  5465.625
841  5481.5625
840.8  5451.875
840.6  5485.625
840.4  5472.5
840.2  5430.9375
840  5378.75
839.8  5422.5
839.6  5374.375
839.4  5501.5625
839.2  5489.6875
839  5506.875
838.8  5537.8125
838.6  5515.3125
838.4  5424.0625
838.2  5548.4375
838  5529.6875
837.8  5552.1875
837.6  5479.375
837.4  5505.3125
837.2  5525
837  5457.1875
836.8  5516.5625
836.6  5424.375
836.4  5434.0625
836.2  5574.6875
836  5468.75
835.8  5550
835.6  5529.375
835.4  5509.6875
835.2  5478.4375
835  5590.625
834.8  5592.8125
834.6  5579.6875
834.4  5608.75
834.2  5572.1875
834  5485.3125
833.8  5571.875
833.6  5560.625
833.4  5657.5
833.2  5590
833  5640.625
832.8  5654.375
832.6  5680
832.4  5646.875
832.2  5720
832  5689.0625
831.8  5686.875
831.6  5668.125
831.4  5851.875
831.2  5749.0625
831  5792.5
830.8  5780.625
830.6  5811.875
830.4  5831.5625
830.2  5861.25
830  5861.875
829.8  5822.1875
829.6  5879.6875
829.4  5819.375
829.2  5961.5625
829  5871.875
828.8  5891.25
828.6  5880
828.4  5908.75
828.2  5890.625
828  5892.8125
827.8  5867.5
827.6  5938.75
827.4  5893.4375
827.2  5874.375
827  5880.625
826.8  5809.6875
826.6  5874.375
826.4  5806.25
826.2  5856.5625
826  5795
825.8  5795.625
825.6  5812.1875
825.4  5745.625
825.2  5721.5625
825  5615.625
824.8  5631.875
824.6  5675.625
824.4  5691.5625
824.2  5608.75
824  5625.9375
823.8  5600.625
823.6  5576.875
823.4  5557.8125
823.2  5643.75
823  5557.8125
822.8  5585.9375
822.6  5601.5625
822.4  5465
822.2  5488.75
822  5565.9375
821.8  5525
821.6  5463.125
821.4  5588.125
821.2  5517.1875
821  5464.0625
820.8  5392.8125
820.6  5410.625
820.4  5468.4375
820.2  5459.0625
820  5488.75
819.8  5439.0625
819.6  5398.125
819.4  5399.375
819.2  5372.1875
819  5371.875
818.8  5442.1875
818.6  5436.25
818.4  5416.25
818.2  5392.1875
818  5391.875
817.8  5381.5625
817.6  5440.9375
817.4  5379.6875
817.2  5369.6875
817  5335.9375
816.8  5292.1875
816.6  5409.375
816.4  5438.125
816.2  5250.3125
816  5278.125
815.8  5233.125
815.6  5277.5
815.4  5382.5
815.2  5333.4375
815  5418.4375
814.8  5327.1875
814.6  5266.5625
814.4  5251.875
814.2  5251.875
814  5327.1875
813.8  5331.25
813.6  5277.1875
813.4  5288.75
813.2  5267.5
813  5289.6875
812.8  5292.5
812.6  5302.1875
812.4  5327.8125
812.2  5230
812  5318.75
811.8  5288.75
811.6  5282.8125
811.4  5316.875
811.2  5305.3125
811  5173.125
810.8  5282.1875
810.6  5210.9375
810.4  5267.1875
810.2  5340.3125
810  5261.5625
809.8  5181.875
809.6  5263.4375
809.4  5165.9375
809.2  5162.8125
809  5267.5
808.8  5217.5
808.6  5284.375
808.4  5132.1875
808.2  5242.1875
808  5218.125
807.8  5260.625
807.6  5235.3125
807.4  5198.125
807.2  5194.6875
807  5193.75
806.8  5260.3125
806.6  5252.8125
806.4  5240
806.2  5180.9375
806  5188.125
805.8  5223.4375
805.6  5196.875
805.4  5167.5
805.2  5234.375
805  5160
804.8  5200.625
804.6  5190.9375
804.4  5171.875
804.2  5160.625
804  5258.4375
803.8  5155
803.6  5194.6875
803.4  5198.75
803.2  5216.5625
803  5193.4375
802.8  5164.375
802.6  5125
802.4  5161.5625
802.2  5146.25
802  5164.6875
801.8  5188.4375
801.6  5200.3125
801.4  5158.125
801.2  5182.8125
801  5207.5
800.8  5150.3125
800.6  5133.75
800.4  5147.8125
800.2  5225.3125
800  5185.9375
799.8  5203.75
799.6  5177.1875
799.4  5128.125
799.2  5235
799  5235
798.8  5203.4375
798.6  5213.4375
798.4  5158.125
798.2  5131.875
798  5138.125
797.8  5174.375
797.6  5121.875
797.4  5137.1875
797.2  5190.9375
797  5164.375
796.8  5201.5625
796.6  5133.4375
796.4  5186.875
796.2  5165.625
796  5178.4375
795.8  5070.625
795.6  5165.3125
795.4  5110.625
795.2  5154.375
795  5153.125
794.8  5220.9375
794.6  5159.0625
794.4  5191.5625
794.2  5174.375
794  5206.875
793.8  5135.625
793.6  5129.6875
793.4  5165.3125
793.2  5134.0625
793  5180.9375
792.8  5251.25
792.6  5135.625
792.4  5104.6875
792.2  5193.75
792  5151.25
791.8  5113.75
791.6  5135
791.4  5165.625
791.2  5099.0625
791  5126.875
790.8  5108.125
790.6  5127.1875
790.4  5159.6875
790.2  5119.6875
790  5164.6875
789.8  5119.0625
789.6  5116.5625
789.4  5205.9375
789.2  5179.0625
789  5218.125
788.8  5130
788.6  5059.0625
788.4  5157.1875
788.2  5188.75
788  5121.875
787.8  5204.0625
787.6  5130.9375
787.4  5121.5625
787.2  5160.625
787  5259.375
786.8  5142.5
786.6  5158.4375
786.4  5150
786.2  5209.0625
786  5110.625
785.8  5155
785.6  5233.125
785.4  5155.3125
785.2  5207.1875
785  5204.375
784.8  5163.125
784.6  5197.5
784.4  5156.25
784.2  5144.6875
784  5148.75
783.8  5176.25
783.6  5172.5
783.4  5141.5625
783.2  5198.4375
783  5143.4375
782.8  5154.6875
782.6  5181.875
782.4  5181.25
782.2  5155.3125
782  5175
781.8  5154.0625
781.6  5203.125
781.4  5104.6875
781.2  5186.25
781  5199.0625
780.8  5195.9375
780.6  5180
780.4  5148.75
780.2  5155.3125
780  5208.125
779.8  5178.75
779.6  5147.8125
779.4  5153.75
779.2  5160.3125
779  5185.9375
778.8  5109.0625
778.6  5109.6875
778.4  5166.5625
778.2  5183.4375
778  5128.4375
777.8  5090
777.6  5119.375
777.4  5181.5625
777.2  5171.5625
777  5104.6875
776.8  5140
776.6  5130.625
776.4  5084.375
776.2  5207.5
776  5161.5625
775.8  5198.125
775.6  5212.1875
775.4  5136.875
775.2  5180.3125
775  5122.5
774.8  5204.375
774.6  5131.5625
774.4  5090.9375
774.2  5150
774  5193.4375
773.8  5155
773.6  5212.1875
773.4  5087.8125
773.2  5128.125
773  5164.0625
772.8  5164.0625
772.6  5194.375
772.4  5199.0625
772.2  5074.6875
772  5086.5625
771.8  5120.9375
771.6  5108.75
771.4  5130.625
771.2  5155.625
771  5164.6875
770.8  5188.125
770.6  5158.4375
770.4  5179.6875
770.2  5155.9375
770  5149.6875
769.8  5177.5
769.6  5191.875
769.4  5236.875
769.2  5207.5
769  5195
768.8  5112.1875
768.6  5158.75
768.4  5149.375
768.2  5137.5
768  5171.5625
767.8  5157.5
767.6  5156.25
767.4  5205.9375
767.2  5118.125
767  5192.1875
766.8  5197.1875
766.6  5157.5
766.4  5103.125
766.2  5145
766  5220.3125
765.8  5238.125
765.6  5230.625
765.4  5214.375
765.2  5138.125
765  5202.1875
764.8  5100.9375
764.6  5151.25
764.4  5198.4375
764.2  5222.5
764  5279.6875
763.8  5174.375
763.6  5158.4375
763.4  5150.3125
763.2  5140
763  5139.0625
762.8  5161.875
762.6  5145
762.4  5210.3125
762.2  5090
762  5194.6875
761.8  5263.4375
761.6  5250.9375
761.4  5224.375
761.2  5214.6875
761  5251.25
760.8  5260.3125
760.6  5220.3125
760.4  5226.5625
760.2  5303.125
760  5243.4375
759.8  5277.5
759.6  5283.125
759.4  5294.375
759.2  5163.125
759  5306.875
758.8  5292.1875
758.6  5251.25
758.4  5276.25
758.2  5242.8125
758  5274.375
757.8  5299.6875
757.6  5185
757.4  5194.375
757.2  5299.0625
757  5211.875
756.8  5266.5625
756.6  5298.125
756.4  5224.375
756.2  5143.75
756  5238.125
755.8  5133.125
755.6  5145.9375
755.4  5154.0625
755.2  5128.4375
755  5137.1875
754.8  5195.9375
754.6  5153.75
754.4  5116.5625
754.2  5201.25
754  5219.375
753.8  5170.3125
753.6  5125.3125
753.4  5141.5625
753.2  5181.25
753  5122.1875
752.8  5195.3125
752.6  5168.125
752.4  5170.9375
752.2  5135
752  5158.4375
751.8  5174.0625
751.6  5105.3125
751.4  5168.4375
751.2  5151.875
751  5142.5
750.8  5108.75
750.6  5149.6875
750.4  5124.0625
750.2  5167.1875
750  5169.0625
749.8  5213.125
749.6  5150.625
749.4  5151.875
749.2  5104.0625
749  5161.875
748.8  5147.1875
748.6  5095
748.4  5149.0625
748.2  5194.6875
748  5138.75
747.8  5108.4375
747.6  5193.4375
747.4  5181.25
747.2  5120.3125
747  5102.8125
746.8  5143.4375
746.6  5109.6875
746.4  5340.625
746.2  5131.875
746  5160.9375
745.8  5140.625
745.6  5133.125
745.4  5142.5
745.2  5225
745  5114.6875
744.8  5083.4375
744.6  5187.5
744.4  5126.875
744.2  5089.0625
744  5128.75
743.8  5097.1875
743.6  5183.75
743.4  5141.5625
743.2  5120.3125
743  5114.375
742.8  5147.8125
742.6  5106.25
742.4  5133.75
742.2  5104.375
742  5188.75
741.8  5095.3125
741.6  5053.75
741.4  5162.8125
741.2  5156.25
741  5163.75
740.8  5128.75
740.6  5152.5
740.4  5195.9375
740.2  5139.375
740  5181.5625
739.8  5108.125
739.6  5150
739.4  5156.25
739.2  5138.75
739  5144.375
738.8  5091.5625
738.6  5121.5625
738.4  5114.375
738.2  5105.9375
738  5230.3125
737.8  5168.125
737.6  5147.5
737.4  5158.125
737.2  5163.75
737  5202.1875
736.8  5304.0625
736.6  5223.4375
736.4  5074.375
736.2  5224.0625
736  5185.625
735.8  5221.5625
735.6  5115.9375
735.4  5116.25
735.2  5145.625
735  5140.625
734.8  5058.125
734.6  5152.8125
734.4  5160.3125
734.2  5120.3125
734  5155.9375
733.8  5165.625
733.6  5194.375
733.4  5177.1875
733.2  5108.4375
733  5176.875
732.8  5118.4375
732.6  5210.625
732.4  5227.8125
732.2  5216.5625
732  5264.0625
731.8  5239.0625
731.6  5205
731.4  5142.1875
731.2  5210.625
731  5169.375
730.8  5121.875
730.6  5173.75
730.4  5216.25
730.2  5215.9375
730  5141.25
729.8  5230.3125
729.6  5166.25
729.4  5112.5
729.2  5128.75
729  5151.875
728.8  5159.6875
728.6  5142.5
728.4  5219.6875
728.2  5133.125
728  5216.5625
727.8  5153.4375
727.6  5189.375
727.4  5137.1875
727.2  5260.9375
727  5210.3125
726.8  5237.5
726.6  5224.0625
726.4  5163.75
726.2  5183.4375
726  5279.0625
725.8  5220.3125
725.6  5271.875
725.4  5288.75
725.2  5212.1875
725  5181.5625
724.8  5187.1875
724.6  5257.8125
724.4  5231.5625
724.2  5289.6875
724  5171.5625
723.8  5251.5625
723.6  5235.9375
723.4  5227.1875
723.2  5254.375
723  5265.625
722.8  5208.125
722.6  5237.5
722.4  5239.0625
722.2  5244.375
722  5239.6875
721.8  5300.625
721.6  5195
721.4  5221.25
721.2  5255.3125
721  5338.4375
720.8  5283.125
720.6  5292.5
720.4  5322.8125
720.2  5340.9375
720  5259.6875
719.8  5408.4375
719.6  5367.1875
719.4  5375.625
719.2  5323.125
719  5380.625
718.8  5405.3125
718.6  5432.8125
718.4  5382.1875
718.2  5415.3125
718  5357.1875
717.8  5379.375
717.6  5455.3125
717.4  5435
717.2  5392.1875
717  5466.875
716.8  5459.375
716.6  5420.3125
716.4  5398.75
716.2  5415.625
716  5378.75
715.8  5410
715.6  5457.5
715.4  5375.625
715.2  5331.25
715  5334.0625
714.8  5256.875
714.6  5267.8125
714.4  5355
714.2  5245.625
714  5272.1875
713.8  5265.3125
713.6  5171.875
713.4  5200
713.2  5098.4375
713  5205.625
712.8  5089.0625
712.6  5156.5625
712.4  5164.375
712.2  5147.1875
712  5181.875
711.8  5154.6875
711.6  5210
711.4  5188.75
711.2  5092.1875
711  5124.375
710.8  5175.625
710.6  5128.125
710.4  5172.8125
710.2  5109.6875
710  5209.375
709.8  5228.125
709.6  5330.9375
709.4  5325
709.2  5295.9375
709  5388.125
708.8  5375.9375
708.6  5371.875
708.4  5509.0625
708.2  5461.875
708  5542.5
707.8  5614.0625
707.6  5735.9375
707.4  5753.75
707.2  5834.375
707  5912.1875
706.8  6058.125
706.6  6150.625
706.4  6257.5
706.2  6450.3125
706  6550
705.8  6698.125
705.6  6841.25
705.4  6933.125
705.2  7069.375
705  7120.3125
704.8  7162.8125
704.6  7156.5625
704.4  7172.8125
704.2  7092.5
704  7030.3125
703.8  6950.3125
703.6  6804.375
703.4  6627.5
703.2  6531.5625
703  6428.125
702.8  6251.875
702.6  6095
702.4  5893.75
702.2  5788.4375
702  5705.625
701.8  5653.4375
701.6  5483.125
701.4  5394.0625
701.2  5385.625
701  5310.9375
700.8  5260.625
700.6  5155.625
700.4  5171.25
700.2  5159.375
700  5137.5
699.8  5090.9375
699.6  5090.625
699.4  5082.8125
699.2  5056.25
699  5059.375
698.8  5033.4375
698.6  4956.5625
698.4  5042.5
698.2  4970.9375
698  4944.0625
697.8  4936.25
697.6  5055.3125
697.4  4916.875
697.2  4976.5625
697  4967.5
696.8  5018.4375
696.6  4969.375
696.4  5039.0625
696.2  4957.1875
696  4987.8125
695.8  5068.75
695.6  4982.5
695.4  5035.9375
695.2  5070.3125
695  5053.4375
694.8  5075.9375
694.6  5131.5625
694.4  5050.9375
694.2  5053.125
694  5052.5
693.8  5002.5
693.6  5062.5
693.4  4921.25
693.2  5001.25
693  4995
692.8  4998.75
692.6  4946.5625
692.4  4981.875
692.2  4948.4375
692  5007.5
691.8  4972.1875
691.6  4910.3125
691.4  4890.9375
691.2  4955
691  4920.3125
690.8  4932.8125
690.6  4905
690.4  4821.25
690.2  4944.375
690  4856.5625
689.8  4842.1875
689.6  4890.625
689.4  4928.75
689.2  4872.1875
689  4890.3125
688.8  4843.75
688.6  4882.1875
688.4  4895
688.2  4925.625
688  4865.625
687.8  4871.875
687.6  4908.75
687.4  4933.125
687.2  4912.8125
687  4884.0625
686.8  4909.375
686.6  4884.0625
686.4  4880.9375
686.2  4902.5
686  4996.875
685.8  4958.75
685.6  4917.8125
685.4  4979.375
685.2  4995
685  4972.8125
684.8  4874.375
684.6  4953.75
684.4  4826.5625
684.2  4865
684  4899.0625
683.8  4911.5625
683.6  4899.6875
683.4  4867.5
683.2  4901.25
683  4871.25
682.8  4925
682.6  4852.5
682.4  4886.5625
682.2  4874.0625
682  4905.9375
681.8  4858.4375
681.6  4837.8125
681.4  4789.375
681.2  4817.8125
681  4866.875
680.8  4856.5625
680.6  4803.125
680.4  4932.1875
680.2  4842.1875
680  4819.0625
679.8  4805.3125
679.6  4848.4375
679.4  4888.125
679.2  4835.3125
679  4869.375
678.8  4819.375
678.6  4869.0625
678.4  4881.875
678.2  4852.5
678  4898.4375
677.8  4804.375
677.6  4786.5625
677.4  4810
677.2  4771.875
677  4755
676.8  4778.125
676.6  4739.375
676.4  4695.9375
676.2  4650
676  4765.3125
675.8  4679.375
675.6  4695.3125
675.4  4634.375
675.2  4718.4375
675  4749.6875
674.8  4715.625
674.6  4705.3125
674.4  4766.25
674.2  4671.5625
674  4660
673.8  4688.125
673.6  4673.4375
673.4  4740.3125
673.2  4723.4375
673  4687.5
672.8  4800
672.6  4776.25
672.4  4822.1875
672.2  4860.9375
672  4873.125
671.8  4910.625
671.6  5004.0625
671.4  5060.3125
671.2  5051.5625
671  5048.4375
670.8  5194.6875
670.6  5337.1875
670.4  5325
670.2  5474.6875
670  5651.5625
669.8  5802.1875
669.6  5907.5
669.4  6054.6875
669.2  6248.125
669  6343.4375
668.8  6622.1875
668.6  6890.9375
668.4  7112.1875
668.2  7314.6875
668  7621.5625
667.8  7896.5625
667.6  8095.9375
667.4  8325.625
667.2  8424.375
667  8640
666.8  8555.625
666.6  8710.9375
666.4  8545.625
666.2  8536.875
666  8307.8125
665.8  8140.625
665.6  7838.4375
665.4  7597.5
665.2  7396.5625
665  6952.1875
664.8  6762.1875
664.6  6470.625
664.4  6204.6875
664.2  6021.5625
664  5809.0625
663.8  5619.6875
663.6  5525.625
663.4  5260.9375
663.2  5174.0625
663  5124.375
662.8  4936.5625
662.6  4916.25
662.4  4852.8125
662.2  4836.875
662  4715.9375
661.8  4670.625
661.6  4600
661.4  4655.3125
661.2  4572.8125
661  4483.4375
660.8  4530
660.6  4509.375
660.4  4469.0625
660.2  4424.375
660  4420.625
659.8  4371.875
659.6  4398.125
659.4  4412.1875
659.2  4430.625
659  4339.6875
658.8  4368.75
658.6  4400.9375
658.4  4318.4375
658.2  4446.875
658  4410.625
657.8  4454.6875
657.6  4439.0625
657.4  4441.5625
657.2  4473.4375
657  4487.8125
656.8  4434.0625
656.6  4450.9375
656.4  4364.0625
656.2  4399.375
656  4394.0625
655.8  4414.375
655.6  4314.375
655.4  4330.9375
655.2  4365.9375
655  4341.5625
654.8  4222.1875
654.6  4310
654.4  4230.9375
654.2  4253.4375
654  4147.1875
653.8  4155.9375
653.6  4218.125
653.4  4171.5625
653.2  4052.8125
653  4085
652.8  4061.25
652.6  3985
652.4  4011.875
652.2  3990.3125
652  4095.3125
651.8  4004.0625
651.6  3978.75
651.4  3964.6875
651.2  3956.875
651  4022.5
650.8  3963.75
650.6  3897.8125
650.4  3953.125
650.2  4048.75
650  3917.5
649.8  3873.75
649.6  3909.375
649.4  3928.125
649.2  3910.9375
649  3865.9375
648.8  3895.3125
648.6  3904.6875
648.4  3924.6875
648.2  3893.125
648  3891.875
647.8  3919.375
647.6  3931.875
647.4  3880.9375
647.2  3868.125
647  3869.6875
646.8  3836.875
646.6  3865
646.4  3930.625
646.2  3911.875
646  3820
645.8  3912.8125
645.6  3881.875
645.4  3860
645.2  3883.125
645  3859.0625
644.8  3897.1875
644.6  3859.375
644.4  3923.125
644.2  3856.875
644  3909.6875
643.8  3888.125
643.6  3924.6875
643.4  3841.5625
643.2  3842.8125
643  3880.625
642.8  3893.75
642.6  3863.125
642.4  3858.4375
642.2  3867.5
642  3877.8125
641.8  3834.375
641.6  3797.8125
641.4  3921.875
641.2  3881.5625
641  3878.125
640.8  3771.5625
640.6  3839.6875
640.4  3852.1875
640.2  3845
640  3802.8125
639.8  3876.5625
639.6  3876.875
639.4  3821.25
639.2  3801.25
639  3886.5625
638.8  3915.9375
638.6  3834.375
638.4  3875
638.2  3815.9375
638  3838.75
637.8  3782.1875
637.6  3829.375
637.4  3877.8125
637.2  3816.875
637  3801.25
636.8  3841.5625
636.6  3904.0625
636.4  3852.1875
636.2  3752.8125
636  3842.1875
635.8  3855.9375
635.6  3834.6875
635.4  3850.625
635.2  3830.625
635  3858.125
634.8  3804.0625
634.6  3841.875
634.4  3813.4375
634.2  3794.6875
634  3838.4375
633.8  3839.0625
633.6  3830.625
633.4  3850.625
633.2  3860.625
633  3811.25
632.8  3836.875
632.6  3840.625
632.4  3755
632.2  3864.0625
632  3810.625
631.8  3880
631.6  3813.4375
631.4  3841.25
631.2  3832.8125
631  3796.25
630.8  3814.375
630.6  3871.875
630.4  3836.875
630.2  3829.375
630  3818.75
629.8  3805.625
629.6  3750.9375
629.4  3832.5
629.2  3839.375
629  3776.875
628.8  3867.1875
628.6  3831.875
628.4  3814.0625
628.2  3836.875
628  3800
627.8  3750.3125
627.6  3755.625
627.4  3857.5
627.2  3783.75
627  3774.6875
626.8  3752.5
626.6  3830.625
626.4  3789.375
626.2  3778.75
626  3767.8125
625.8  3774.375
625.6  3775
625.4  3874.6875
625.2  3832.5
625  3764.6875
624.8  3767.1875
624.6  3787.1875
624.4  3815
624.2  3789.6875
624  3792.5
623.8  3783.75
623.6  3735.9375
623.4  3837.5
623.2  3831.5625
623  3795.625
622.8  3821.5625
622.6  3825.9375
622.4  3751.25
622.2  3726.5625
622  3803.75
621.8  3773.75
621.6  3822.8125
621.4  3780.9375
621.2  3753.75
621  3765
620.8  3824.6875
620.6  3755.9375
620.4  3827.8125
620.2  3815.9375
620  3847.5
619.8  3769.0625
619.6  3792.8125
619.4  3853.125
619.2  3843.4375
619  3774.0625
618.8  3740.625
618.6  3805.3125
618.4  3778.4375
618.2  3816.25
618  3841.25
617.8  3741.875
617.6  3723.75
617.4  3790.3125
617.2  3775.9375
617  3793.125
616.8  3903.4375
616.6  3773.125
616.4  3800.625
616.2  3850.9375
616  3880.9375
615.8  3811.875
615.6  3811.5625
615.4  3855
615.2  3819.375
615  3759.0625
614.8  3793.75
614.6  3807.8125
614.4  3743.125
614.2  3764.0625
614  3732.5
613.8  3825.9375
613.6  3840.625
613.4  3826.875
613.2  3795.3125
613  3863.75
612.8  3807.8125
612.6  3730.625
612.4  3830.625
612.2  3847.1875
612  3759.0625
611.8  3846.5625
611.6  3799.6875
611.4  3759.375
611.2  3790.3125
611  3814.375
610.8  3750
610.6  3824.0625
610.4  3860.625
610.2  3821.25
610  3755
609.8  3768.75
609.6  3852.8125
609.4  3770.625
609.2  3853.75
609  3818.75
608.8  3761.25
608.6  3837.8125
608.4  3802.8125
608.2  3809.6875
608  3794.0625
607.8  3815.9375
607.6  3775.9375
607.4  3778.4375
607.2  3761.25
607  3816.5625
606.8  3889.6875
606.6  3826.25
606.4  3805.9375
606.2  3829.0625
606  3796.875
605.8  3790.9375
605.6  3836.5625
605.4  3739.6875
605.2  3814.6875
605  3830.9375
604.8  3840.9375
604.6  3820.625
604.4  3901.25
604.2  3801.5625
604  3778.125
603.8  3870
603.6  3915.625
603.4  3808.125
603.2  3888.125
603  3855.3125
602.8  3801.25
602.6  3819.0625
602.4  3847.5
602.2  3760.9375
602  3840
601.8  3778.125
601.6  3860
601.4  3817.1875
601.2  3869.0625
601  3853.75
600.8  3836.5625
600.6  3840.3125
600.4  3885.3125
600.2  3841.5625
600  3846.875
599.8  3820
599.6  3822.8125
599.4  3840.625
599.2  3815.9375
599  3942.1875
598.8  3820
598.6  3875
598.4  3921.25
598.2  3862.5
598  3851.5625
597.8  3782.8125
597.6  3877.8125
597.4  3900
597.2  3840.625
597  3878.4375
596.8  3817.5
596.6  3940.3125
596.4  3898.125
596.2  3864.375
596  3828.75
595.8  3849.0625
595.6  3864.0625
595.4  3958.75
595.2  3880.625
595  3825.625
594.8  3913.4375
594.6  3947.5
594.4  3830.3125
594.2  3839.6875
594  3860.3125
593.8  3814.6875
593.6  3857.5
593.4  3752.1875
593.2  3830.9375
593  3830
592.8  3821.25
592.6  3844.0625
592.4  3806.25
592.2  3809.375
592  3789.6875
591.8  3825.625
591.6  3824.6875
591.4  3818.75
591.2  3855.9375
591  3789.375
590.8  3806.25
590.6  3782.1875
590.4  3792.8125
590.2  3793.4375
590  3773.4375
589.8  3793.125
589.6  3872.5
589.4  3810.625
589.2  3837.1875
589  3839.375
588.8  3814.0625
588.6  3803.4375
588.4  3819.375
588.2  3813.75
588  3840.9375
587.8  3785.9375
587.6  3827.8125
587.4  3840.3125
587.2  3841.5625
587  3783.125
586.8  3806.25
586.6  3741.5625
586.4  3784.6875
586.2  3779.0625
586  3788.125
585.8  3870.9375
585.6  3839.375
585.4  3770.9375
585.2  3737.5
585  3808.75
584.8  3841.5625
584.6  3817.1875
584.4  3790.3125
584.2  3834.6875
584  3852.1875
583.8  3814.6875
583.6  3799.375
583.4  3789.375
583.2  3896.875
583  3779.375
582.8  3827.8125
582.6  3805
582.4  3779.0625
582.2  3801.25
582  3826.5625
581.8  3842.1875
581.6  3787.5
581.4  3860.9375
581.2  3792.1875
581  3784.6875
580.8  3752.1875
580.6  3778.125
580.4  3780.625
580.2  3817.8125
580  3799.6875
579.8  3789.0625
579.6  3803.75
579.4  3738.125
579.2  3796.5625
579  3814.0625
578.8  3817.8125
578.6  4000
578.4  3834.375
578.2  3825.9375
578  3788.125
577.8  3781.25
577.6  3791.5625
577.4  3805.625
577.2  3788.75
577  3796.5625
576.8  3827.5
576.6  3903.125
576.4  3771.875
576.2  3794.0625
576  3821.875
575.8  3857.1875
575.6  3864.6875
575.4  3842.8125
575.2  3795.9375
575  3810.9375
574.8  3807.1875
574.6  3828.125
574.4  3876.5625
574.2  3875
574  3930.3125
573.8  3859.6875
573.6  3859.0625
573.4  3800
573.2  3835.625
573  3866.25
572.8  3908.75
572.6  3836.5625
572.4  3790.9375
572.2  3820
572  3811.875
571.8  3805.3125
571.6  3842.5
571.4  3837.5
571.2  3798.4375
571  3822.8125
570.8  3863.75
570.6  3871.875
570.4  3846.25
570.2  3854.6875
570  3768.125
569.8  3825.3125
569.6  3846.5625
569.4  3879.0625
569.2  3907.8125
569  3819.0625
568.8  3825.3125
568.6  3825
568.4  3880.3125
568.2  3839.0625
568  3895.9375
567.8  3832.1875
567.6  3911.875
567.4  3845
567.2  3843.4375
567  3876.875
566.8  3845.9375
566.6  3875.3125
566.4  3868.125
566.2  3854.6875
566  3896.25
565.8  3858.75
565.6  3822.8125
565.4  3863.4375
565.2  3850.3125
565  3864.375
564.8  3878.125
564.6  3873.125
564.4  3825.9375
564.2  3806.25
564  3820.625
563.8  3861.5625
563.6  3845.9375
563.4  3860.3125
563.2  3872.8125
563  3806.25
562.8  3846.25
562.6  3836.5625
562.4  3827.5
562.2  3884.6875
562  3880
561.8  3841.875
561.6  3885.3125
561.4  3794.0625
561.2  3855
561  3761.875
560.8  3887.5
560.6  3887.5
560.4  3854.375
560.2  3896.25
560  3860.3125
559.8  3777.8125
559.6  3952.1875
559.4  3864.0625
559.2  3840
559  3868.4375
558.8  3815
558.6  3884.6875
558.4  3904.0625
558.2  3888.125
558  3814.6875
557.8  3879.375
557.6  3840
557.4  3884.0625
557.2  3848.75
557  3880.625
556.8  3911.5625
556.6  3862.8125
556.4  3834.6875
556.2  3897.8125
556  3812.5
555.8  3884.375
555.6  3902.1875
555.4  3857.5
555.2  3830.625
555  3881.25
554.8  3906.875
554.6  3905.3125
554.4  3944.0625
554.2  3900.625
554  3951.875
553.8  3847.5
553.6  3910.9375
553.4  3927.5
553.2  3915.625
553  4002.1875
552.8  3955.625
552.6  3950.9375
552.4  3902.5
552.2  4029.375
552  3962.1875
551.8  3946.875
551.6  3913.125
551.4  3941.25
551.2  3938.4375
551  4061.25
550.8  3879.6875
550.6  4010
550.4  3974.6875
550.2  3913.125
550  3933.75
549.8  3976.25
549.6  3937.8125
549.4  4004.375
549.2  3960.3125
549  4044.375
548.8  4035
548.6  4007.5
548.4  3992.8125
548.2  3985.9375
548  4079.0625
547.8  3992.5
547.6  4041.5625
547.4  4005.3125
547.2  4030.625
547  4031.5625
546.8  3940.9375
546.6  3960.9375
546.4  3935.3125
546.2  3892.8125
546  3934.0625
545.8  3858.75
545.6  3875.9375
545.4  3870.3125
545.2  3838.4375
545  3859.0625
544.8  3816.25
544.6  3783.75
544.4  3774.6875
544.2  3807.5
544  3831.5625
543.8  3729.0625
543.6  3747.5
543.4  3773.75
543.2  3822.1875
543  3732.8125
542.8  3706.5625
542.6  3729.6875
542.4  3741.875
542.2  3719.0625
542  3744.375
541.8  3712.5
541.6  3783.75
541.4  3719.6875
541.2  3719.6875
541  3750.625
540.8  3712.1875
540.6  3769.375
540.4  3711.5625
540.2  3704.375
540  3799.375
539.8  3692.1875
539.6  3705.9375
539.4  3680.625
539.2  3648.125
539  3692.1875
538.8  3663.4375
538.6  3703.125
538.4  3661.25
538.2  3669.6875
538  3707.1875
537.8  3705.3125
537.6  3634.6875
537.4  3676.875
537.2  3660.625
537  3679.6875
536.8  3698.4375
536.6  3639.0625
536.4  3630.3125
536.2  3648.125
536  3652.1875
535.8  3644.6875
535.6  3615.3125
535.4  3667.8125
535.2  3661.5625
535  3676.875
534.8  3723.125
534.6  3721.875
534.4  3830.9375
534.2  3897.5
534  3986.25
533.8  4143.125
533.6  4169.6875
533.4  4235.625
533.2  4386.25
533  4623.4375
532.8  4640.9375
532.6  4920
532.4  5159.6875
532.2  5436.875
532  5760.9375
531.8  6133.75
531.6  6478.75
531.4  6739.6875
531.2  7018.75
531  7164.375
530.8  7207.5
530.6  7038.125
530.4  6751.25
530.2  6258.4375
530  5676.25
529.8  5147.1875
529.6  4718.75
529.4  4368.125
529.2  4038.75
529  3929.375
528.8  3757.5
528.6  3695
528.4  3689.0625
528.2  3627.8125
528  3548.4375
527.8  3511.875
527.6  3583.75
527.4  3507.5
527.2  3505.3125
527  3572.1875
526.8  3547.1875
526.6  3546.25
526.4  3570.3125
526.2  3563.4375
526  3536.875
525.8  3527.1875
525.6  3512.5
525.4  3459.375
525.2  3506.25
525  3565.3125
524.8  3554.0625
524.6  3571.875
524.4  3540
524.2  3478.4375
524  3542.5
523.8  3519.375
523.6  3515.625
523.4  3564.375
523.2  3543.75
523  3464.6875
522.8  3527.5
522.6  3542.5
522.4  3594.0625
522.2  3645.625
522  3664.375
521.8  3697.1875
521.6  3701.875
521.4  3716.875
521.2  3698.125
521  3774.0625
520.8  3794.0625
520.6  3707.1875
520.4  3670
520.2  3691.875
520  3680
519.8  3642.1875
519.6  3656.25
519.4  3748.125
519.2  3591.5625
519  3590
518.8  3552.1875
518.6  3575.625
518.4  3487.8125
518.2  3530
518  3532.8125
517.8  3490
517.6  3469.6875
517.4  3446.25
517.2  3490
517  3439.6875
516.8  3436.5625
516.6  3487.8125
516.4  3489.375
516.2  3432.1875
516  3521.25
515.8  3423.4375
515.6  3430
515.4  3464.375
515.2  3449.375
515  3469.6875
514.8  3495.3125
514.6  3497.1875
514.4  3526.5625
514.2  3448.4375
514  3490.625
513.8  3490.9375
513.6  3507.5
513.4  3416.25
513.2  3435
513  3440.625
512.8  3426.875
512.6  3474.375
512.4  3493.75
512.2  3426.25
512  3512.1875
511.8  3543.4375
511.6  3492.1875
511.4  3562.5
511.2  3430.625
511  3479.0625
510.8  3518.75
510.6  3431.875
510.4  3515.625
510.2  3495.9375
510  3491.875
509.8  3455
509.6  3524.6875
509.4  3461.875
509.2  3465.3125
509  3451.25
508.8  3468.125
508.6  3508.4375
508.4  3498.4375
508.2  3481.5625
508  3457.8125
507.8  3498.75
507.6  3489.6875
507.4  3478.4375
507.2  3509.6875
507  3528.125
506.8  3501.875
506.6  3468.125
506.4  3519.0625
506.2  3473.75
506  3520.9375
505.8  3466.25
505.6  3473.75
505.4  3575.9375
505.2  3478.125
505  3488.75
504.8  3541.25
504.6  3495
504.4  3550
504.2  3511.25
504  3473.4375
503.8  3475.625
503.6  3482.8125
503.4  3454.375
503.2  3512.5
503  3444.0625
502.8  3560.9375
502.6  3457.5
502.4  3534.375
502.2  3495.3125
502  3443.75
501.8  3510.625
501.6  3509.6875
501.4  3428.75
501.2  3491.25
501  3481.25
500.8  3385.9375
500.6  3476.875
500.4  3454.0625
500.2  3483.125
500  3442.8125
499.8  3503.75
499.6  3477.5
499.4  3483.4375
499.2  3436.5625
499  3529.6875
498.8  3518.75
498.6  3495
498.4  3521.25
498.2  3564.375
498  3549.0625
497.8  3628.4375
497.6  3655.9375
497.4  3717.5
497.2  3774.6875
497  3801.5625
496.8  3838.125
496.6  3850.625
496.4  3961.5625
496.2  4012.1875
496  4031.875
495.8  4083.125
495.6  4099.6875
495.4  4046.875
495.2  4041.875
495  3970.3125
494.8  3777.8125
494.6  3757.5
494.4  3664.0625
494.2  3570.3125
494  3555.9375
493.8  3464.375
493.6  3430.3125
493.4  3419.375
493.2  3399.375
493  3394.375
492.8  3401.25
492.6  3327.8125
492.4  3372.5
492.2  3343.75
492  3441.5625
491.8  3400.9375
491.6  3454.0625
491.4  3360.625
491.2  3474.6875
491  3375.625
490.8  3411.5625
490.6  3398.75
490.4  3468.125
490.2  3457.8125
490  3522.8125
489.8  3551.875
489.6  3612.1875
489.4  3594.0625
489.2  3694.6875
489  3735.625
488.8  3810.9375
488.6  3892.8125
488.4  3945.9375
488.2  4029.6875
488  4106.5625
487.8  4158.75
487.6  4239.6875
487.4  4303.4375
487.2  4321.25
487  4302.5
486.8  4244.6875
486.6  4152.8125
486.4  4049.0625
486.2  3951.5625
486  3813.75
485.8  3665.3125
485.6  3611.5625
485.4  3552.5
485.2  3550.9375
485  3503.125
484.8  3430.9375
484.6  3403.4375
484.4  3420.3125
484.2  3393.125
484  3419.375
483.8  3442.1875
483.6  3392.5
483.4  3360
483.2  3472.5
483  3425.625
482.8  3370.9375
482.6  3513.75
482.4  3419.6875
482.2  3450.9375
482  3384.0625
481.8  3387.5
481.6  3375.9375
481.4  3392.5
481.2  3418.4375
481  3426.25
480.8  3406.5625
480.6  3447.5
480.4  3351.5625
480.2  3362.8125
480  3420.9375
479.8  3459.6875
479.6  3467.8125
479.4  3436.5625
479.2  3484.375
479  3407.5
478.8  3458.125
478.6  3439.375
478.4  3441.5625
478.2  3510.625
478  3457.1875
477.8  3474.6875
477.6  3465.9375
477.4  3484.0625
477.2  3527.1875
477  3433.75
476.8  3449.6875
476.6  3495.9375
476.4  3545.9375
476.2  3479.375
476  3515
475.8  3482.5
475.6  3483.125
475.4  3464.0625
475.2  3568.4375
475  3522.8125
474.8  3487.8125
474.6  3546.25
474.4  3537.1875
474.2  3529.0625
474  3505.625
473.8  3565.3125
473.6  3567.1875
473.4  3603.75
473.2  3688.125
473  3643.125
472.8  3593.125
472.6  3634.6875
472.4  3614.0625
472.2  3659.0625
472  3615.625
471.8  3689.6875
471.6  3569.6875
471.4  3693.4375
471.2  3606.5625
471  3674.0625
470.8  3642.5
470.6  3652.1875
470.4  3617.1875
470.2  3660.9375
470  3645.625
469.8  3659.0625
469.6  3637.1875
469.4  3617.8125
469.2  3704.6875
469  3824.6875
468.8  3652.5
468.6  3642.5
468.4  3650.3125
468.2  3636.875
468  3693.75
467.8  3665.3125
467.6  3585.9375
467.4  3620.3125
467.2  3570.625
467  3690.625
466.8  3617.8125
466.6  3605
466.4  3661.5625
466.2  3619.6875
466  3642.5
465.8  3640
465.6  3607.5
465.4  3610.3125
465.2  3636.25
465  3671.875
464.8  3701.25
464.6  3670
464.4  3628.75
464.2  3705.625
464  3672.5
463.8  3651.5625
463.6  3663.4375
463.4  3602.8125
463.2  3636.5625
463  3636.25
462.8  3615.9375
462.6  3586.5625
462.4  3598.75
462.2  3511.5625
462  3478.125
461.8  3485.9375
461.6  3424.6875
461.4  3416.25
461.2  3424.6875
461  3384.6875
460.8  3406.25
460.6  3337.5
460.4  3352.5
460.2  3357.1875
460  3386.875
459.8  3264.6875
459.6  3315
459.4  3272.1875
459.2  3260.3125
459  3213.4375
458.8  3207.1875
458.6  3166.25
458.4  3192.5
458.2  3137.1875
458  3214.0625
457.8  3195
457.6  3206.25
457.4  3254.0625
457.2  3232.5
457  3238.75
456.8  3290.3125
456.6  3288.125
456.4  3377.1875
456.2  3490
456  3608.75
455.8  3785.3125
455.6  3895.9375
455.4  4102.5
455.2  4468.75
455  4894.375
454.8  5346.5625
454.6  6101.5625
454.4  6816.25
454.2  7671.5625
454  8618.125
453.8  9638.75
453.6  10645.313
453.4  11516.875
453.2  12373.125
453  12816.563
452.8  13065.938
452.6  12624.688
452.4  11790
452.2  10498.438
452  9050.3125
451.8  7433.4375
451.6  6124.6875
451.4  5183.4375
451.2  4198.75
451  3635
450.8  3211.5625
450.6  3009.375
450.4  2876.875
450.2  2774.375
450  2695.625
449.8  2714.0625
449.6  2694.6875
449.4  2668.75
449.2  2713.75
449  2741.25
448.8  2872.5
448.6  3038.125
448.4  3201.875
448.2  3514.0625
448  3782.5
447.8  4137.5
447.6  4681.875
447.4  5352.1875
447.2  6229.0625
447  7149.6875
446.8  8287.8125
446.6  9615.625
446.4  11051.25
446.2  12576.563
446  14061.563
445.8  15316.875
445.6  16533.438
445.4  17060.313
445.2  17230
445  16330
444.8  14995.313
444.6  13194.688
444.4  11032.188
444.2  8986.25
444  7177.1875
443.8  5815
443.6  4784.0625
443.4  4078.75
443.2  3705.625
443  3325.9375
442.8  3124.375
442.6  2923.75
442.4  2733.125
442.2  2543.4375
442  2419.375
441.8  2319.0625
441.6  2256.25
441.4  2118.4375
441.2  2114.375
441  2053.125
440.8  2011.875
440.6  1943.75
440.4  1859.6875
440.2  1842.8125
440  1770
439.8  1740.625
439.6  1654.0625
439.4  1618.125
439.2  1582.1875
439  1495.9375
438.8  1563.4375
438.6  1476.25
438.4  1509.6875
438.2  1537.8125
438  1565.625
437.8  1555
437.6  1564.0625
437.4  1614.6875
437.2  1682.8125
437  1742.5
436.8  1879.0625
436.6  1973.75
436.4  2089.375
436.2  2189.375
436  2310.625
435.8  2330.3125
435.6  2430.625
435.4  2398.125
435.2  2425
435  2331.25
434.8  2234.375
434.6  2135.625
434.4  2068.4375
434.2  1999.6875
434  1980.9375
433.8  1916.25
433.6  1898.125
433.4  1830.625
433.2  1792.1875
433  1717.1875
432.8  1635.625
432.6  1579.375
432.4  1480.9375
432.2  1397.5
432  1383.4375
431.8  1322.1875
431.6  1303.75
431.4  1259.0625
431.2  1214.375
431  1220.3125
430.8  1200
430.6  1201.5625
430.4  1191.5625
430.2  1213.4375
430  1190.3125
429.8  1196.875
429.6  1153.75
429.4  1183.125
429.2  1190.3125
429  1181.25
428.8  1195.625
428.6  1169.6875
428.4  1172.8125
428.2  1153.75
428  1132.5
427.8  1132.8125
427.6  1126.5625
427.4  1163.125
427.2  1115.9375
427  1161.25
426.8  1151.25
426.6  1189.0625
426.4  1145.625
426.2  1170.3125
426  1203.4375
425.8  1177.8125
425.6  1180
425.4  1174.6875
425.2  1185.3125
425  1196.875
424.8  1149.0625
424.6  1156.25
424.4  1154.0625
424.2  1163.125
424  1138.75
423.8  1108.4375
423.6  1144.375
423.4  1178.4375
423.2  1130.9375
423  1125.9375
422.8  1131.25
422.6  1154.6875
422.4  1151.875
422.2  1115.3125
422  1129.6875
421.8  1145.9375
421.6  1133.75
421.4  1132.8125
421.2  1102.8125
421  1174.375
420.8  1090.3125
420.6  1111.5625
420.4  1100.3125
420.2  1113.125
420  1073.4375
419.8  1102.1875
419.6  1090.625
419.4  1102.1875
419.2  1107.8125
419  1096.25
418.8  1085.3125
418.6  1078.75
418.4  1064.375
418.2  1080.9375
418  1130.9375
417.8  1084.375
417.6  1057.8125
417.4  1061.875
417.2  1130.9375
417  1108.4375
416.8  1068.125
416.6  1106.25
416.4  1082.5
416.2  1071.5625
416  1080
415.8  1089.0625
415.6  1067.1875
415.4  1081.5625
415.2  1114.6875
415  1089.6875
414.8  1064.6875
414.6  1069.6875
414.4  1051.875
414.2  1062.5
414  1028.4375
413.8  1057.8125
413.6  1097.1875
413.4  1067.1875
413.2  1105.3125
413  1090.3125
412.8  1032.8125
412.6  1092.8125
412.4  1082.8125
412.2  1120.3125
412  1069.0625
411.8  1051.25
411.6  1055
411.4  1032.8125
411.2  1079.375
411  1054.375
410.8  1064.0625
410.6  1087.5
410.4  1071.25
410.2  1087.5
410  1057.1875
409.8  1085.3125
409.6  1062.1875
409.4  1068.125
409.2  1093.125
409  1066.5625
408.8  1051.5625
408.6  1054.375
408.4  1066.25
408.2  1030.9375
408  1051.5625
407.8  1038.125
407.6  1071.5625
407.4  1065.625
407.2  1049.6875
407  1091.25
406.8  1071.875
406.6  1051.25
406.4  1071.875
406.2  1060
406  1076.5625
405.8  1056.875
405.6  1092.5
405.4  1034.375
405.2  1083.75
405  1077.5
404.8  1035.3125
404.6  1069.6875
404.4  1039.0625
404.2  1068.4375
404  1087.5
403.8  1075.3125
403.6  1078.4375
403.4  1057.1875
403.2  1062.8125
403  1088.4375
402.8  1069.6875
402.6  1070
402.4  1090.625
402.2  1076.875
402  1082.5
401.8  1104.0625
401.6  1083.125
401.4  1088.125
401.2  1068.125
401  1083.125
400.8  1123.4375
400.6  1088.125
400.4  1088.75
400.2  1093.4375
400  1093.4375
399.8  1108.75
399.6  1065.9375
399.4  1108.75
399.2  1080.625
399  1075.3125
398.8  1045
398.6  1093.4375
398.4  1069.6875
398.2  1020
398  1069.375
397.8  1097.8125
397.6  1079.375
397.4  1054.0625
397.2  1057.5
397  1084.6875
396.8  1014.6875
396.6  1058.125
396.4  1055.625
396.2  1051.5625
396  1074.375
395.8  1031.875
395.6  1065.9375
395.4  1065.3125
395.2  1033.75
395  1035
394.8  1074.375
394.6  1053.75
394.4  1278.75
394.2  1057.8125
394  1063.125
393.8  1036.5625
393.6  1062.8125
393.4  1049.6875
393.2  1082.8125
393  1070.9375
392.8  1031.5625
392.6  1075
392.4  1066.25
392.2  1035.3125
392  1057.1875
391.8  1052.1875
391.6  1081.5625
391.4  1064.375
391.2  1056.875
391  1044.0625
390.8  1043.75
390.6  1075.625
390.4  1031.5625
390.2  1068.125
390  1034.375
389.8  1035.625
389.6  1085.625
389.4  1019.375
389.2  1073.4375
389  1041.5625
388.8  1050.9375
388.6  1051.25
388.4  1056.875
388.2  1040.9375
388  1068.125
387.8  1040.3125
387.6  1088.4375
387.4  1058.125
387.2  1080.3125
387  1080.625
386.8  1082.1875
386.6  1045
386.4  1074.375
386.2  1093.75
386  1083.75
385.8  1092.1875
385.6  1075.9375
385.4  1090.625
385.2  1086.25
385  1128.75
384.8  1079.6875
384.6  1104.6875
384.4  1087.1875
384.2  1117.8125
384  1094.0625
383.8  1123.4375
383.6  1162.8125
383.4  1105
383.2  1118.4375
383  1087.5
382.8  1117.1875
382.6  1127.1875
382.4  1112.5
382.2  1114.0625
382  1138.125
381.8  1130.625
381.6  1137.5
381.4  1066.5625
381.2  1110.9375
381  1115.3125
380.8  1064.0625
380.6  1086.25
380.4  1098.125
380.2  1056.25
380  1092.8125
379.8  1078.125
379.6  1068.75
379.4  1077.8125
379.2  1057.5
379  1091.875
378.8  1078.4375
378.6  1089.375
378.4  1045.3125
378.2  1105.9375
378  1064.375
377.8  1098.125
377.6  1078.125
377.4  1120.3125
377.2  1124.0625
377  1070.625
376.8  1136.25
376.6  1131.25
376.4  1134.6875
376.2  1099.6875
376  1150.9375
375.8  1115.3125
375.6  1138.75
375.4  1126.875
375.2  1129.375
375  1133.125
374.8  1135
374.6  1137.8125
374.4  1110.3125
374.2  1124.375
374  1104.0625
373.8  1082.8125
373.6  1071.25
373.4  1108.4375
373.2  1049.0625
373  1062.8125
372.8  1049.6875
372.6  1043.75
372.4  1037.8125
372.2  983.75
372  1002.8125
371.8  998.4375
371.6  983.4375
371.4  982.1875
371.2  972.8125
371  947.8125
370.8  964.6875
370.6  970.3125
370.4  953.75
370.2  967.5
370  964.375
369.8  977.1875
369.6  968.4375
369.4  969.6875
369.2  965
369  944.375
368.8  949.375
368.6  971.25
368.4  959.375
368.2  954.0625
368  948.125
367.8  980
367.6  983.75
367.4  934.0625
367.2  1009.6875
367  956.875
366.8  968.125
366.6  980
366.4  947.8125
366.2  970
366  950
365.8  962.5
365.6  965
365.4  946.5625
365.2  958.75
365  947.5
364.8  980.625
364.6  961.5625
364.4  996.875
364.2  977.5
364  945
363.8  973.125
363.6  937.1875
363.4  983.75
363.2  932.8125
363  918.125
362.8  940.3125
362.6  946.5625
362.4  965.9375
362.2  979.375
362  951.5625
361.8  967.5
361.6  939.6875
361.4  940.3125
361.2  935
361  951.25
360.8  974.375
360.6  948.4375
360.4  949.6875
360.2  951.25
360  928.4375
359.8  935
359.6  962.1875
359.4  979.6875
359.2  973.75
359  948.4375
358.8  970.625
358.6  948.125
358.4  964.0625
358.2  948.4375
358  955.625
357.8  970.625
357.6  929.0625
357.4  974.0625
357.2  958.4375
357  973.125
356.8  979.6875
356.6  936.875
356.4  966.875
356.2  954.6875
356  982.5
355.8  976.875
355.6  974.6875
355.4  963.75
355.2  981.875
355  937.5
354.8  926.25
354.6  985.3125
354.4  950.3125
354.2  977.8125
354  951.875
353.8  974.0625
353.6  955.9375
353.4  947.5
353.2  986.5625
353  960.3125
352.8  973.75
352.6  975.9375
352.4  953.125
352.2  985
352  951.25
351.8  964.0625
351.6  983.125
351.4  956.25
351.2  958.4375
351  965.3125
350.8  979.6875
350.6  958.4375
350.4  958.125
350.2  960
350  959.0625
349.8  933.4375
349.6  965.3125
349.4  960.9375
349.2  981.5625
349  963.125
348.8  958.75
348.6  976.5625
348.4  974.375
348.2  968.75
348  997.1875
347.8  945.9375
347.6  957.5
347.4  1002.5
347.2  959.375
347  967.1875
346.8  947.5
346.6  954.6875
346.4  953.125
346.2  965.3125
346  982.1875
345.8  944.375
345.6  950
345.4  965.9375
345.2  968.75
345  971.5625
344.8  973.125
344.6  966.875
344.4  982.5
344.2  909.6875
344  958.125
343.8  980
343.6  952.8125
343.4  934.0625
343.2  946.25
343  931.5625
342.8  951.5625
342.6  939.6875
342.4  981.875
342.2  941.25
342  956.875
341.8  973.75
341.6  947.5
341.4  928.75
341.2  979.0625
341  963.4375
340.8  941.5625
340.6  935.9375
340.4  959.6875
340.2  968.125
340  966.875
339.8  965.3125
339.6  962.1875
339.4  988.125
339.2  967.5
339  933.4375
338.8  955
338.6  957.1875
338.4  964.0625
338.2  965.9375
338  965.9375
337.8  981.875
337.6  956.5625
337.4  956.875
337.2  999.0625
337  970.3125
336.8  959.0625
336.6  949.375
336.4  963.125
336.2  972.8125
336  942.5
335.8  961.25
335.6  985
335.4  943.125
335.2  950
335  995.3125
334.8  950.625
334.6  997.5
334.4  950.9375
334.2  966.25
334  965
333.8  962.8125
333.6  995.3125
333.4  981.5625
333.2  987.8125
333  965.625
332.8  947.8125
332.6  953.4375
332.4  949.375
332.2  974.375
332  977.5
331.8  974.6875
331.6  957.8125
331.4  978.75
331.2  949.375
331  985.625
330.8  953.125
330.6  982.8125
330.4  977.5
330.2  972.5
330  955.3125
329.8  954.6875
329.6  966.25
329.4  972.8125
329.2  981.5625
329  956.25
328.8  964.375
328.6  961.25
328.4  957.1875
328.2  939.6875
328  937.8125
327.8  957.5
327.6  960.3125
327.4  964.0625
327.2  989.0625
327  1001.875
326.8  951.875
326.6  958.75
326.4  962.8125
326.2  951.5625
326  923.4375
325.8  967.1875
325.6  961.25
325.4  975.9375
325.2  948.125
325  952.1875
324.8  976.5625
324.6  980.625
324.4  957.1875
324.2  939.0625
324  971.875
323.8  986.5625
323.6  956.25
323.4  948.4375
323.2  960.9375
323  986.5625
322.8  969.6875
322.6  958.75
322.4  966.5625
322.2  977.5
322  983.75
321.8  980
321.6  980
321.4  1005.3125
321.2  1002.5
321  977.1875
320.8  990.625
320.6  1013.4375
320.4  1026.25
320.2  1009.375
320  982.5
319.8  971.5625
319.6  1000.625
319.4  1020
319.2  997.5
319  969.0625
318.8  1019.6875
318.6  1008.125
318.4  985
318.2  970
318  982.8125
317.8  957.1875
317.6  974.375
317.4  1005.9375
317.2  954.0625
317  961.5625
316.8  943.75
316.6  940.3125
316.4  954.6875
316.2  978.75
316  983.125
315.8  986.5625
315.6  966.875
315.4  991.5625
315.2  954.6875
315  968.4375
314.8  955.3125
314.6  992.5
314.4  957.5
314.2  1007.1875
314  942.5
313.8  956.25
313.6  975
313.4  979.6875
313.2  966.25
313  955.625
312.8  969.6875
312.6  979.0625
312.4  992.1875
312.2  953.125
312  952.5
311.8  960.9375
311.6  986.25
311.4  978.125
311.2  977.1875
311  961.25
310.8  939.6875
310.6  997.5
310.4  938.4375
310.2  957.1875
310  961.875
309.8  955.9375
309.6  952.8125
309.4  984.6875
309.2  966.5625
309  954.0625
308.8  964.0625
308.6  1001.25
308.4  989.6875
308.2  966.25
308  948.75
307.8  919.375
307.6  944.0625
307.4  956.25
307.2  975
307  986.875
306.8  971.25
306.6  990.625
306.4  975
306.2  966.5625
306  978.4375
305.8  983.75
305.6  1008.75
305.4  966.5625
305.2  998.4375
305  967.5
304.8  959.375
304.6  965.9375
304.4  943.4375
304.2  979.375
304  983.75
303.8  945
303.6  962.5
303.4  950.625
303.2  946.875
303  955.9375
302.8  951.25
302.6  940.3125
302.4  981.875
302.2  937.8125
302  949.375
301.8  977.8125
301.6  946.875
301.4  966.5625
301.2  958.4375
301  979.375
300.8  976.875
300.6  960.625
300.4  971.875
300.2  970.625
300  970.3125
299.8  981.875
299.6  929.375
299.4  978.4375
299.2  973.4375
299  930.625
298.8  945
298.6  974.0625
298.4  935.9375
298.2  941.25
298  959.0625
297.8  951.25
297.6  985
297.4  955.3125
297.2  954.375
297  946.25
296.8  990.3125
296.6  931.5625
296.4  938.125
296.2  952.8125
296  938.75
295.8  965.9375
295.6  970.9375
295.4  1002.8125
295.2  976.25
295  947.5
294.8  931.5625
294.6  969.6875
294.4  927.8125
294.2  972.8125
294  969.6875
293.8  943.4375
293.6  984.375
293.4  936.25
293.2  982.8125
293  983.4375
292.8  998.75
292.6  946.5625
292.4  948.75
292.2  955.3125
292  966.875
291.8  950.9375
291.6  989.0625
291.4  987.1875
291.2  960.9375
291  995.9375
290.8  955.625
290.6  990.625
290.4  982.8125
290.2  979.6875
290  998.4375
289.8  1023.75
289.6  963.125
289.4  1028.75
289.2  1005.9375
289  1002.1875
288.8  1031.875
288.6  1025.9375
288.4  1015.625
288.2  1079.0625
288  1049.6875
287.8  1107.1875
287.6  1082.5
287.4  1079.0625
287.2  1073.4375
287  1063.4375
286.8  1108.4375
286.6  1113.75
286.4  1145.3125
286.2  1124.6875
286  1120.625
285.8  1135.3125
285.6  1075.625
285.4  1050.9375
285.2  1067.1875
285  1049.6875
284.8  1006.875
284.6  989.6875
284.4  984.375
284.2  1001.25
284  997.8125
283.8  930.9375
283.6  953.125
283.4  946.875
283.2  959.0625
283  938.75
282.8  975.3125
282.6  968.75
282.4  963.75
282.2  971.875
282  931.875
281.8  980
281.6  964.375
281.4  961.5625
281.2  906.5625
281  959.0625
280.8  952.8125
280.6  985.9375
280.4  963.125
280.2  929.375
280  952.1875
279.8  966.5625
279.6  969.0625
279.4  942.1875
279.2  952.1875
279  949.6875
278.8  969.0625
278.6  982.5
278.4  925.9375
278.2  964.0625
278  970
277.8  932.5
277.6  997.1875
277.4  951.25
277.2  973.75
277  949.6875
276.8  971.875
276.6  956.5625
276.4  985.625
276.2  958.125
276  975.625
275.8  977.5
275.6  968.75
275.4  966.5625
275.2  987.1875
275  998.125
274.8  1005.9375
274.6  968.4375
274.4  944.6875
274.2  987.8125
274  959.0625
273.8  949.6875
273.6  954.375
273.4  961.25
273.2  935.9375
273  973.4375
272.8  946.5625
272.6  948.75
272.4  969.6875
272.2  990.625
272  955.9375
271.8  978.4375
271.6  986.875
271.4  949.6875
271.2  965.625
271  981.875
270.8  964.0625
270.6  954.6875
270.4  967.1875
270.2  965
270  967.5
269.8  967.5
269.6  990.625
269.4  948.75
269.2  959.6875
269  990
268.8  990
268.6  973.4375
268.4  950
268.2  971.5625
268  986.5625
267.8  949.6875
267.6  970.9375
267.4  990.3125
267.2  974.6875
267  962.5
266.8  1000.9375
266.6  947.8125
266.4  930.3125
266.2  952.5
266  963.125
265.8  963.125
265.6  1003.75
265.4  969.375
265.2  962.5
265  947.5
264.8  948.4375
264.6  963.75
264.4  952.8125
264.2  958.125
264  971.5625
263.8  979.375
263.6  933.4375
263.4  952.5
263.2  954.375
263  961.5625
262.8  941.875
262.6  960
262.4  963.75
262.2  940.9375
262  978.4375
261.8  936.25
261.6  965.9375
261.4  937.8125
261.2  980.3125
261  968.75
260.8  951.875
260.6  993.75
260.4  954.0625
260.2  954.375
260  934.0625
259.8  971.5625
259.6  949.0625
259.4  961.5625
259.2  935.3125
259  952.8125
258.8  944.6875
258.6  949.6875
258.4  972.8125
258.2  958.75
258  916.875
257.8  983.75
257.6  921.25
257.4  946.25
257.2  990.3125
257  976.25
256.8  960.625
256.6  949.0625
256.4  970
256.2  956.875
256  956.875
255.8  955.9375
255.6  971.5625
255.4  953.4375
255.2  950.3125
255  960.9375
254.8  959.0625
254.6  939.0625
254.4  960.3125
254.2  933.75
254  950.3125
253.8  980
253.6  946.25
253.4  965.625
253.2  957.1875
253  963.4375
252.8  929.375
252.6  1006.25
252.4  950.9375
252.2  945.3125
252  958.75
251.8  955.3125
251.6  923.125
251.4  965.625
251.2  948.125
251  966.25
250.8  960.625
250.6  931.5625
250.4  949.6875
250.2  938.4375
250  945.625
249.8  951.875
249.6  952.1875
249.4  935
249.2  949.375
249  953.125
248.8  962.8125
248.6  945
248.4  957.8125
248.2  973.75
248  934.6875
247.8  976.25
247.6  977.5
247.4  979.6875
247.2  958.4375
247  931.25
246.8  948.4375
246.6  966.875
246.4  969.375
246.2  990.9375
246  998.75
245.8  982.5
245.6  997.5
245.4  966.25
245.2  989.375
245  997.1875
244.8  976.25
244.6  976.5625
244.4  1002.1875
244.2  1011.25
244  1010.625
243.8  985
243.6  992.8125
243.4  1023.125
243.2  1024.6875
243  1011.875
242.8  1026.5625
242.6  1036.875
242.4  1035.625
242.2  979.375
242  972.8125
241.8  996.5625
241.6  975.3125
241.4  983.125
241.2  958.125
241  968.75
240.8  993.75
240.6  981.5625
240.4  935.9375
240.2  983.75
240  975.9375
239.8  961.5625
239.6  930.625
239.4  981.25
239.2  946.25
239  967.5
238.8  970
238.6  958.75
238.4  962.1875
238.2  965.9375
238  965.625
237.8  961.875
237.6  960.625
237.4  975.9375
237.2  945.3125
237  960.3125
236.8  948.75
236.6  946.25
236.4  961.5625
236.2  937.5
236  985.9375
235.8  948.125
235.6  943.75
235.4  995.625
235.2  923.4375
235  939.375
234.8  955
234.6  936.25
234.4  1008.125
234.2  945.9375
234  968.4375
233.8  948.125
233.6  951.875
233.4  965.625
233.2  970.3125
233  954.6875
232.8  973.75
232.6  925.9375
232.4  959.0625
232.2  985.625
232  948.75
231.8  972.8125
231.6  933.125
231.4  930.625
231.2  954.375
231  968.75
230.8  955.3125
230.6  983.4375
230.4  952.1875
230.2  974.6875
230  972.5
229.8  951.5625
229.6  947.1875
229.4  960.9375
229.2  957.8125
229  953.4375
228.8  931.875
228.6  962.5
228.4  991.5625
228.2  968.75
228  930.625
227.8  952.5
227.6  993.4375
227.4  948.75
227.2  997.1875
227  954.375
226.8  982.1875
226.6  963.4375
226.4  954.375
226.2  986.25
226  983.125
225.8  933.4375
225.6  957.5
225.4  973.75
225.2  961.5625
225  945.625
224.8  950
224.6  908.4375
224.4  925.625
224.2  962.1875
224  963.4375
223.8  949.0625
223.6  978.4375
223.4  953.125
223.2  917.8125
223  956.25
222.8  978.75
222.6  955
222.4  929.375
222.2  1235.625
222  929.6875
221.8  930.625
221.6  949.0625
221.4  952.1875
221.2  968.4375
221  933.125
220.8  968.75
220.6  944.375
220.4  966.25
220.2  938.125
220  952.8125
219.8  941.25
219.6  975.3125
219.4  940.625
219.2  926.875
219  940.625
218.8  946.875
218.6  941.875
218.4  972.5
218.2  962.8125
218  972.8125
217.8  930
217.6  970.9375
217.4  971.25
217.2  941.25
217  919.0625
216.8  945
216.6  954.6875
216.4  936.25
216.2  942.1875
216  931.875
215.8  950.625
215.6  967.1875
215.4  966.875
215.2  909.0625
215  951.25
214.8  932.8125
214.6  971.875
214.4  982.1875
214.2  937.5
214  935.625
213.8  923.75
213.6  931.875
213.4  909.375
213.2  984.6875
213  966.875
212.8  966.25
212.6  935
212.4  965.3125
212.2  955.9375
212  950.625
211.8  978.4375
211.6  943.125
211.4  968.4375
211.2  946.25
211  919.6875
210.8  934.375
210.6  960.625
210.4  934.0625
210.2  941.875
210  919.6875
209.8  974.0625
209.6  906.25
209.4  949.375
209.2  921.875
209  925.3125
208.8  948.125
208.6  964.375
208.4  944.0625
208.2  973.4375
208  935.625
207.8  916.875
207.6  965.625
207.4  977.8125
207.2  958.4375
207  928.125
206.8  937.1875
206.6  948.4375
206.4  980.3125
206.2  939.6875
206  934.0625
205.8  936.5625
205.6  948.125
205.4  966.25
205.2  945.625
205  931.5625
204.8  955.625
204.6  938.125
204.4  927.8125
204.2  955.9375
204  935.9375
203.8  958.125
203.6  945.3125
203.4  953.4375
203.2  968.4375
203  947.5
202.8  960.9375
202.6  943.4375
202.4  955.625
202.2  936.5625
202  960.625
201.8  943.125
201.6  979.0625
201.4  960.3125
201.2  984.375
201  965.625
200.8  981.5625
200.6  981.25
200.4  971.875
200.2  991.875
200  996.25
199.8  989.375
199.6  995
199.4  992.5
199.2  1010.9375
199  996.25
198.8  983.125
198.6  998.75
198.4  998.125
198.2  975.3125
198  979.0625
197.8  954.6875
197.6  930.625
197.4  922.5
197.2  941.5625
197  931.5625
196.8  932.1875
196.6  982.1875
196.4  964.0625
196.2  983.4375
196  950
195.8  915.3125
195.6  981.875
195.4  966.875
195.2  930.9375
195  985.9375
194.8  951.875
194.6  929.6875
194.4  960.3125
194.2  938.75
194  941.875
193.8  965.625
193.6  953.125
193.4  962.1875
193.2  981.25
193  975.9375
192.8  935.9375
192.6  994.6875
192.4  973.4375
192.2  1008.4375
192  987.5
191.8  979.375
191.6  969.6875
191.4  975.3125
191.2  962.1875
191  961.5625
190.8  976.25
190.6  950
190.4  921.25
190.2  980.3125
190  956.875
189.8  962.1875
189.6  955.9375
189.4  928.4375
189.2  931.25
189  960
188.8  957.1875
188.6  954.0625
188.4  965.625
188.2  956.25
188  975.9375
187.8  987.5
187.6  945.3125
187.4  969.0625
187.2  977.5
187  973.75
186.8  954.375
186.6  966.5625
186.4  953.4375
186.2  965
186  950.3125
185.8  955.625
185.6  955.3125
185.4  956.5625
185.2  951.25
185  935
184.8  978.125
184.6  978.75
184.4  952.8125
184.2  985
184  945.9375
183.8  995.9375
183.6  939.375
183.4  926.5625
183.2  954.375
183  941.5625
182.8  983.4375
182.6  933.75
182.4  980.9375
182.2  965.9375
182  939.6875
181.8  974.375
181.6  962.1875
181.4  913.125
181.2  986.875
181  977.1875
180.8  931.875
180.6  925
180.4  957.5
180.2  927.5
180  942.5
179.8  950.3125
179.6  928.4375
179.4  955.3125
179.2  956.875
179  959.375
178.8  966.5625
178.6  950.625
178.4  976.25
178.2  952.5
178  964.375
177.8  985.9375
177.6  928.4375
177.4  962.5
177.2  966.25
177  946.25
176.8  950.625
176.6  952.5
176.4  954.375
176.2  936.5625
176  921.875
175.8  947.1875
175.6  959.6875
175.4  955.9375
175.2  958.75
175  938.125
174.8  936.875
174.6  950.625
174.4  984.6875
174.2  964.6875
174  968.4375
173.8  940.625
173.6  952.5
173.4  968.75
173.2  961.875
173  952.1875
172.8  962.1875
172.6  934.0625
172.4  958.75
172.2  950.3125
172  973.4375
171.8  951.5625
171.6  958.125
171.4  949.375
171.2  967.1875
171  956.25
170.8  960.9375
170.6  966.25
170.4  944.6875
170.2  975.625
170  946.25
169.8  975.3125
169.6  986.5625
169.4  919.6875
169.2  952.8125
169  988.125
168.8  948.4375
168.6  943.4375
168.4  1014.0625
168.2  951.875
168  939.6875
167.8  960.9375
167.6  965.9375
167.4  976.5625
167.2  965
167  945.9375
166.8  974.375
166.6  968.4375
166.4  969.375
166.2  985
166  981.875
165.8  944.375
165.6  947.8125
165.4  953.75
165.2  967.5
165  995.625
164.8  997.5
164.6  983.75
164.4  970
164.2  965.625
164  972.1875
163.8  983.4375
163.6  962.5
163.4  990.3125
163.2  987.5
163  969.6875
162.8  996.875
162.6  979.375
162.4  987.5
162.2  975.3125
162  989.0625
161.8  1000.625
161.6  971.5625
161.4  982.5
161.2  979.6875
161  990.9375
160.8  967.1875
160.6  980.3125
160.4  956.25
160.2  957.8125
160  966.875
159.8  963.75
159.6  949.6875
159.4  933.4375
159.2  979.375
159  962.8125
158.8  973.75
158.6  978.75
158.4  975.9375
158.2  949.375
158  942.1875
157.8  942.1875
157.6  1005
157.4  995.625
157.2  986.25
157  990.625
156.8  977.1875
156.6  981.25
156.4  968.4375
156.2  975.625
156  995
155.8  990.625
155.6  973.4375
155.4  1008.125
155.2  960.625
155  968.4375
154.8  1001.25
154.6  953.4375
154.4  981.875
154.2  970.3125
154  991.875
153.8  959.6875
153.6  987.1875
153.4  986.25
153.2  988.4375
153  962.1875
152.8  995.3125
152.6  948.75
152.4  988.4375
152.2  945.9375
152  980.625
151.8  956.5625
151.6  957.8125
151.4  957.8125
151.2  958.125
151  958.75
150.8  947.5
150.6  946.875
150.4  962.5
150.2  997.8125
150  979.375
149.8  992.5
149.6  972.5
149.4  987.5
149.2  974.6875
149  977.8125
148.8  963.75
148.6  982.5
148.4  964.0625
148.2  955.9375
148  977.5
147.8  974.6875
147.6  980.3125
147.4  992.8125
147.2  950.3125
147  952.1875
146.8  949.6875
146.6  982.1875
146.4  991.25
146.2  955.9375
146  948.4375
145.8  965
145.6  957.5
145.4  990.9375
145.2  986.5625
145  988.4375
144.8  981.25
144.6  965.625
144.4  969.0625
144.2  971.25
144  972.8125
143.8  972.1875
143.6  993.75
143.4  965.625
143.2  955.9375
143  985
142.8  984.0625
142.6  998.75
142.4  963.4375
142.2  960.9375
142  1005.9375
141.8  1004.0625
141.6  978.4375
141.4  978.75
141.2  983.125
141  982.1875
140.8  1022.1875
140.6  987.1875
140.4  1024.0625
140.2  1004.375
140  984.375
139.8  1002.5
139.6  967.5
139.4  997.1875
139.2  979.375
139  996.25
138.8  993.125
138.6  970
138.4  959.0625
138.2  990
138  967.1875
137.8  990.9375
137.6  969.0625
137.4  973.75
137.2  1027.1875
137  972.5
136.8  988.4375
136.6  980
136.4  961.875
136.2  978.75
136  955.9375
135.8  984.0625
135.6  947.8125
135.4  990.625
135.2  978.125
135  970.9375
134.8  936.25
134.6  993.75
134.4  970.9375
134.2  988.4375
134  992.5
133.8  947.1875
133.6  959.0625
133.4  988.75
133.2  1009.375
133  998.125
132.8  991.25
132.6  995
132.4  1009.375
132.2  967.1875
132  995.9375
131.8  973.125
131.6  993.125
131.4  990.625
131.2  996.25
131  976.875
130.8  1002.5
130.6  957.1875
130.4  977.1875
130.2  1010.9375
130  1001.5625
129.8  1025.625
129.6  1008.125
129.4  988.75
129.2  1000
129  1007.1875
128.8  1056.875
128.6  995
128.4  1064.375
128.2  1020
128  1031.25
127.8  1045.625
127.6  1042.5
127.4  1036.5625
127.2  1051.5625
127  1108.125
126.8  1077.5
126.6  1054.0625
126.4  1125.9375
126.2  1151.875
126  1120
125.8  1122.5
125.6  1132.5
125.4  1166.25
125.2  1138.75
125  1129.0625
124.8  1150.625
124.6  1159.375
124.4  1157.8125
124.2  1186.5625
124  1195.625
123.8  1169.6875
123.6  1149.6875
123.4  1137.5
123.2  1149.6875
123  1155.9375
122.8  1119.6875
122.6  1101.25
122.4  1090.3125
122.2  1033.75
122  1070.9375
121.8  1066.25
121.6  1028.75
121.4  1050.3125
121.2  1008.4375
121  1012.8125
120.8  996.25
120.6  988.4375
120.4  977.5
120.2  989.0625
120  995.625
119.8  966.25
119.6  989.0625
119.4  980.3125
119.2  967.5
119  959.0625
118.8  974.6875
118.6  999.375
118.4  985
118.2  989.0625
118  955.3125
117.8  950.3125
117.6  951.875
117.4  945
117.2  955.3125
117  949.0625
116.8  943.4375
116.6  986.5625
116.4  1004.375
116.2  980.625
116  985
115.8  947.8125
115.6  942.5
115.4  963.75
115.2  969.6875
115  980
114.8  975
114.6  966.25
114.4  998.4375
114.2  997.5
114  976.25
113.8  999.375
113.6  958.4375
113.4  1000.625
113.2  971.5625
113  965
112.8  977.8125
112.6  971.25
112.4  972.8125
112.2  945.625
112  979.6875
111.8  985.625
111.6  961.875
111.4  980.625
111.2  965
111  972.5
110.8  962.5
110.6  986.5625
110.4  969.0625
110.2  967.1875
110  970
109.8  975.3125
109.6  969.375
109.4  983.125
109.2  965.9375
109  974.375
108.8  922.8125
108.6  961.875
108.4  963.4375
108.2  950
108  957.1875
107.8  977.5
107.6  935.3125
107.4  996.25
107.2  986.875
107  969.0625
106.8  977.5
106.6  985.9375
106.4  964.6875
106.2  948.75
106  1011.5625
105.8  988.4375
105.6  971.25
105.4  957.1875
105.2  1007.5
105  1068.4375
104.8  978.4375
104.6  979.0625
104.4  975.9375
104.2  999.0625
104  1023.125
103.8  967.8125
103.6  985.3125
103.4  998.125
103.2  982.8125
103  992.5
102.8  965.625
102.6  983.4375
102.4  945.625
102.2  955.625
102  970.9375
101.8  938.75
101.6  995
101.4  986.875
101.2  967.5
101  1012.8125
100.8  980.9375
100.6  986.875
100.4  991.5625
100.2  957.1875
100  970.625
99.8  1011.5625
99.6  997.5
99.4  1030.625
99.2  1022.8125
99  971.5625
98.8  986.5625
98.6  1007.5
98.4  997.1875
98.2  977.1875
98  969.0625
97.8  1020.625
97.6  981.5625
97.4  994.375
97.2  1014.0625
97  1010.3125
96.8  1022.1875
96.6  984.375
96.4  1011.5625
96.2  1024.6875
96  1045.625
95.8  1024.375
95.6  998.75
95.4  1026.875
95.2  1027.1875
95  997.5
94.8  1013.125
94.6  1021.25
94.4  998.125
94.2  1037.1875
94  1029.0625
93.8  1065.3125
93.6  1040
93.4  1018.4375
93.2  1072.5
93  1017.8125
92.8  1053.125
92.6  1056.5625
92.4  1046.5625
92.2  1076.25
92  1055.9375
91.8  1010.625
91.6  1026.875
91.4  1075
91.2  1055.3125
91  1077.8125
90.8  1072.5
90.6  1030.9375
90.4  1059.375
90.2  1080.625
90  1078.4375
89.8  1080.9375
89.6  1097.8125
89.4  1071.875
89.2  1094.0625
89  1118.125
88.8  1084.0625
88.6  1133.75
88.4  1099.0625
88.2  1072.1875
88  1143.75
87.8  1122.1875
87.6  1094.375
87.4  1107.1875
87.2  1091.25
87  1100.625
86.8  1107.1875
86.6  1130.625
86.4  1162.8125
86.2  1150
86  1108.4375
85.8  1126.5625
85.6  1116.5625
85.4  1139.6875
85.2  1132.5
85  1112.5
84.8  1113.75
84.6  1140.9375
84.4  1124.0625
84.2  1127.8125
84  1144.6875
83.8  1160
83.6  1145.3125
83.4  1140.9375
83.2  1139.375
83  1176.875
82.8  1134.6875
82.6  1153.125
82.4  1161.5625
82.2  1149.0625
82  1151.875
81.8  1180.3125
81.6  1163.125
81.4  1188.75
81.2  1169.0625
81  1179.0625
80.8  1208.4375
80.6  1178.125
80.4  1148.4375
80.2  1187.8125
80  1192.1875
79.8  1203.75
79.6  1185.625
79.4  1136.5625
79.2  1161.25
79  1139.6875
78.8  1156.25
78.6  1144.0625
78.4  1167.5
78.2  1145
78  1213.75
77.8  1109.0625
77.6  1113.75
77.4  1086.5625
77.2  1045.625
77  1109.6875
76.8  1090.625
76.6  1081.5625
76.4  1046.875
76.2  1005
76  1028.75
75.8  1045.9375
75.6  1005.9375
75.4  1012.5
75.2  1030.9375
75  1012.5
74.8  965
74.6  968.75
74.4  1005.3125
74.2  972.5
74  962.8125
73.8  955.3125
73.6  924.375
73.4  937.5
73.2  910.625
73  937.5
72.8  923.4375
72.6  935.9375
72.4  916.5625
72.2  923.75
72  885.3125
71.8  926.5625
71.6  886.5625
71.4  915
71.2  851.875
71  861.25
70.8  883.75
70.6  867.5
70.4  823.125
70.2  862.1875
70  864.375
69.8  856.875
69.6  834.0625
69.4  853.4375
69.2  781.875
69  824.375
68.8  806.5625
68.6  789.375
68.4  797.1875
68.2  810.3125
68  790.625
67.8  766.875
67.6  776.5625
67.4  789.6875
67.2  796.5625
67  796.25
66.8  783.4375
66.6  804.375
66.4  784.6875
66.2  779.375
66  775.625
65.8  771.25
65.6  758.75
65.4  739.6875
65.2  748.4375
65  759.0625
64.8  728.4375
64.6  748.75
64.4  758.125
64.2  751.5625
64  738.4375
63.8  755.625
63.6  758.75
63.4  710.9375
63.2  725.9375
63  736.25
62.8  732.8125
62.6  743.4375
62.4  710.3125
62.2  732.5
62  750.3125
61.8  743.4375
61.6  702.8125
61.4  741.875
61.2  729.0625
61  697.5
60.8  715.3125
60.6  695.3125
60.4  726.875
60.2  724.0625
60  697.1875
59.8  696.5625
59.6  720
59.4  739.375
59.2  692.8125
59  718.125
58.8  723.75
58.6  729.0625
58.4  694.0625
58.2  700.9375
58  724.6875
57.8  713.4375
57.6  715.625
57.4  697.8125
57.2  738.75
57  722.5
56.8  720
56.6  735.9375
56.4  727.5
56.2  700.625
56  710.3125
55.8  710.9375
55.6  707.8125
55.4  748.125
55.2  712.5
55  717.5
54.8  705
54.6  711.25
54.4  709.6875
54.2  688.4375
54  734.375
53.8  698.4375
53.6  730.625
53.4  701.25
53.2  719.6875
53  704.375
52.8  718.75
52.6  705.9375
52.4  715.9375
52.2  702.1875
52  694.375
51.8  696.875
51.6  696.25
51.4  715.3125
51.2  702.5
51  706.25
50.8  688.75
50.6  702.5
50.4  702.5
50.2  700.625
50  708.4375
49.8  727.8125
49.6  703.125
49.4  676.875
49.2  713.4375
49  701.5625
48.8  718.125
48.6  716.875
48.4  756.5625
48.2  729.375
48  723.4375
47.8  729.0625
47.6  712.1875
47.4  730.625
47.2  724.375
47  734.375
46.8  748.4375
46.6  726.875
46.4  727.5
46.2  728.75
46  744.375
45.8  743.4375
45.6  752.1875
45.4  751.5625
45.2  738.75
45  738.4375
44.8  731.25
44.6  707.8125
44.4  733.4375
44.2  750.3125
44  711.875
43.8  711.875
43.6  758.125
43.4  725
43.2  742.5
43  736.25
42.8  729.375
42.6  730.3125
42.4  725.9375
42.2  827.8125
42  720.9375
41.8  725.625
41.6  702.5
41.4  736.25
41.2  742.1875
41  753.4375
40.8  715.625
40.6  719.0625
40.4  696.5625
40.2  716.25
40  709.0625
39.8  714.375
39.6  734.6875
39.4  729.0625
39.2  740.3125
39  717.8125
38.8  742.5
38.6  747.5
38.4  749.0625
38.2  732.5
38  751.25
37.8  764.375
37.6  754.375
37.4  754.0625
37.2  754.6875
37  764.375
36.8  756.5625
36.6  753.75
36.4  739.375
36.2  735.625
36  764.0625
35.8  719.375
35.6  733.4375
35.4  763.75
35.2  739.6875
35  752.5
34.8  756.5625
34.6  715.9375
34.4  741.875
34.2  861.5625
34  712.5
33.8  745.9375
33.6  748.4375
33.4  709.375
33.2  695.9375
33  712.5
32.8  708.125
32.6  718.75
32.4  731.875
32.2  733.4375
32  721.5625
31.8  698.4375
31.6  717.1875
31.4  701.25
31.2  718.4375
31  720.625
30.8  718.75
30.6  734.6875
30.4  700.3125
30.2  708.4375
30  719.375
29.8  730
29.6  720
29.4  748.4375
29.2  728.4375
29  761.875
28.8  726.25
28.6  802.8125
28.4  787.5
28.2  795.3125
28  783.125
27.8  810.625
27.6  845.9375
27.4  816.5625
27.2  818.75
27  810.3125
26.8  809.6875
26.6  792.8125
26.4  814.6875
26.2  795.9375
26  775.625
25.8  775
25.6  741.5625
25.4  711.5625
25.2  752.5
25  718.4375
24.8  724.375
24.6  715.625
24.4  720.9375
24.2  714.0625
24  744.375
23.8  756.875
23.6  773.125
23.4  767.8125
23.2  775.625
23  806.875
22.8  760.625
22.6  789.0625
22.4  790.3125
22.2  840.9375
22  845
21.8  915.9375
21.6  910
21.4  990.3125
21.2  1028.125
21  1112.5
20.8  1262.5
20.6  1345.9375
20.4  1586.5625
20.2  1730
20  1943.125
19.8  2187.5
19.6  2364.6875
19.4  2588.125
19.2  2739.6875
19  2843.75
18.8  2857.8125
18.6  2825
18.4  2697.1875
18.2  2541.875
18  2313.4375
17.8  2008.75
17.6  1764.0625
17.4  1521.875
17.2  1288.75
17  1101.875
16.8  969.375
16.6  829.6875
16.4  740
16.2  692.1875
16  632.5
15.8  628.4375
15.6  590.3125
15.4  567.8125
15.2  567.5
15  566.25
14.8  537.5
14.6  533.125
14.4  539.6875
14.2  539.6875
14  528.4375
13.8  514.6875
13.6  524.6875
13.4  525.625
13.2  507.8125
13  504.6875
12.8  504.6875
12.6  520.3125
12.4  531.875
12.2  519.375
12  528.4375
11.8  522.1875
11.6  520.625
11.4  538.4375
11.2  554.0625
11  527.8125
10.8  540.9375
10.6  574.0625
10.4  598.75
10.2  602.8125
10  631.875
9.8  658.4375
9.6  668.125
9.4  710.3125
9.2  707.1875
9  706.875
8.8  712.8125
8.6  730.625
8.4  698.125
8.2  693.125
8  671.5625
7.8  672.8125
7.6  657.8125
7.4  659.375
7.2  640.9375
7  645.9375
6.8  626.5625
6.6  620.3125
6.4  600
6.2  610
6  582.8125
5.8  592.1875
5.6  578.75
5.4  552.1875
5.2  573.125
5  545.3125
4.8  546.875
4.6  541.25
4.4  529.375
4.2  490.625
4  503.125
3.8  469.6875
3.6  462.1875
3.4  469.375
3.2  465.625
3  432.1875
2.8  440.3125
2.6  449.0625
2.4  439.375
2.2  431.5625
2  417.8125
1.8  411.5625
1.6  442.8125
1.4  433.4375
1.2  435.9375
1  427.1875
0.8  433.4375
0.6  433.125
0.4  443.4375
0.2  437.1875
-2.2737368e-013  446.5625
-0.2  428.125
-0.4  431.875
-0.6  406.5625
-0.8  431.875
-1  430.625
-1.2  422.5
-1.4  416.25
-1.6  424.0625
-1.8  437.1875
-2  427.1875
-2.2  439.375
-2.4  419.375
-2.6  419.0625
-2.8  421.25
-3  424.6875
-3.2  434.6875
-3.4  425.625
-3.6  445.625
-3.8  425.625
-4  418.75

