# Created by:        SpecsLab Prodigy, Version 4.60.2-r85849 
#
# XY-Serializer Export Settings:
#   Comment Prefix:           #
#   Output meta data:         yes
#   Energy Axis:              Binding Energy
#   Count Rate:               Counts per Second
#   Separate Scan Data:       no
#   Separate Channel Data:    no
#   External Channel Data:    yes
#   Transmission Function:    no
#   ErrorBar:                 no
#   Operation Results:        yes
#   Time Zone Format:         UTC
#
# Group:             Spectrum Group
#
# Region:            overview
# Acquisition Date:  08/22/22 15:58:03 UTC
# Analysis Method:   XPS
# Analyzer:          Phoibos 100 R6
# Analyzer Lens:     MediumArea:1.5kV
# Analyzer Slit:     1:0.2x20\B:open
# Scan Mode:         FixedAnalyzerTransmission
# Curves/Scan:       1
# Values/Curve:      1205
# Dwell Time:        0.2
# Excitation Energy: 1486.61
# Binding Energy:    1200
# Pass Energy:       50
# Bias Voltage:      90
# Detector Voltage:  2600
# Eff. Workfunction: 4.309
# Source:            X-Ray Dummy
# Comment:           
#
# Cycle: 0
# Number of Scans: 1
#
# Cycle: 0, Curve: 0
# Acquisition Date: 08/22/22 15:58:03 UTC
#
# ColumnLabels: energy counts/s
#
1200  8820
1199  8605
1198  8685
1197  8560
1196  8880
1195  8625
1194  8520
1193  8495
1192  8760
1191  8595
1190  8255
1189  8780
1188  8335
1187  8675
1186  8670
1185  7955
1184  8015
1183  8060
1182  8165
1181  8215
1180  7860
1179  8045
1178  7860
1177  7795
1176  7815
1175  8280
1174  7995
1173  7820
1172  8210
1171  8000
1170  8125
1169  8035
1168  8210
1167  8070
1166  7855
1165  7635
1164  7660
1163  7635
1162  8140
1161  7990
1160  8120
1159  8075
1158  8020
1157  7635
1156  7935
1155  8015
1154  7990
1153  7425
1152  7975
1151  7840
1150  8115
1149  7915
1148  7785
1147  7845
1146  7805
1145  7625
1144  7520
1143  7425
1142  7250
1141  6990
1140  7120
1139  6950
1138  6670
1137  6470
1136  6450
1135  6495
1134  6290
1133  6455
1132  6490
1131  6530
1130  6275
1129  6375
1128  6090
1127  6100
1126  6135
1125  5930
1124  6235
1123  5940
1122  6270
1121  6145
1120  5950
1119  5845
1118  6155
1117  5770
1116  6225
1115  6025
1114  6255
1113  5980
1112  6250
1111  6480
1110  5880
1109  5815
1108  6100
1107  6215
1106  6070
1105  6165
1104  6435
1103  5860
1102  6860
1101  6090
1100  6060
1099  6100
1098  6120
1097  6155
1096  6220
1095  6285
1094  6730
1093  6720
1092  6405
1091  6880
1090  7015
1089  7995
1088  8515
1087  9065
1086  9055
1085  8980
1084  7930
1083  7205
1082  7310
1081  7110
1080  7145
1079  6900
1078  6620
1077  5685
1076  5365
1075  4960
1074  4720
1073  4620
1072  4830
1071  4815
1070  4390
1069  4565
1068  4775
1067  4565
1066  4855
1065  4620
1064  4860
1063  4570
1062  4365
1061  4515
1060  4435
1059  4225
1058  4635
1057  4350
1056  3885
1055  4035
1054  4020
1053  4005
1052  4135
1051  3850
1050  3915
1049  3990
1048  3900
1047  3925
1046  3855
1045  4175
1044  4205
1043  3890
1042  3950
1041  3925
1040  4115
1039  4065
1038  3970
1037  4015
1036  3785
1035  3960
1034  3880
1033  4110
1032  4010
1031  3930
1030  3880
1029  4130
1028  3970
1027  3850
1026  4045
1025  3915
1024  3890
1023  3830
1022  4285
1021  4145
1020  3380
1019  3845
1018  3735
1017  3950
1016  3835
1015  3955
1014  4050
1013  3915
1012  3955
1011  4005
1010  3945
1009  3940
1008  4050
1007  3725
1006  3790
1005  3870
1004  4110
1003  3920
1002  3905
1001  4095
1000  3790
999  3920
998  4010
997  4230
996  3965
995  3940
994  4220
993  3995
992  3800
991  4030
990  4210
989  4015
988  3985
987  4165
986  3875
985  3680
984  3945
983  3600
982  3865
981  4190
980  3810
979  4000
978  4045
977  3950
976  4590
975  4855
974  4750
973  4355
972  4015
971  4010
970  3725
969  3975
968  3770
967  3750
966  3555
965  3810
964  3620
963  3485
962  3390
961  3595
960  3835
959  3665
958  3465
957  3535
956  3490
955  3450
954  3390
953  3260
952  3645
951  3660
950  3495
949  3660
948  3600
947  3585
946  3695
945  3430
944  3655
943  3635
942  3500
941  3555
940  3505
939  3765
938  3485
937  3670
936  3715
935  3520
934  3535
933  3475
932  3530
931  3230
930  3580
929  3540
928  3535
927  3460
926  3715
925  3630
924  3695
923  3565
922  3565
921  3295
920  3565
919  3860
918  3710
917  3610
916  3615
915  3545
914  3805
913  3270
912  3645
911  3500
910  3700
909  3810
908  3645
907  3565
906  3440
905  3660
904  3680
903  3350
902  3365
901  3500
900  3525
899  3895
898  3505
897  3350
896  3800
895  3995
894  3920
893  3605
892  3555
891  3715
890  3720
889  3720
888  3655
887  3780
886  3510
885  3395
884  3655
883  3855
882  3780
881  3525
880  3650
879  3735
878  3755
877  3995
876  3640
875  3700
874  3815
873  3550
872  3690
871  3700
870  3705
869  3505
868  3600
867  3920
866  3785
865  3745
864  3545
863  3755
862  3480
861  3830
860  3720
859  3650
858  3705
857  3460
856  3625
855  3820
854  3695
853  3930
852  3995
851  3925
850  3725
849  3650
848  3740
847  3750
846  3685
845  3655
844  3830
843  3615
842  3950
841  3705
840  3895
839  3630
838  3740
837  3900
836  3540
835  3970
834  3780
833  3990
832  4245
831  4235
830  4100
829  4125
828  4245
827  4260
826  4355
825  4085
824  3790
823  3945
822  3960
821  4085
820  3915
819  3860
818  3970
817  3735
816  3715
815  3990
814  3700
813  4015
812  3815
811  3615
810  3700
809  3870
808  3790
807  3910
806  3570
805  3805
804  3780
803  3595
802  3925
801  3530
800  3660
799  3855
798  3735
797  3760
796  3580
795  3650
794  3695
793  3720
792  4150
791  3795
790  3750
789  3850
788  3705
787  3780
786  3930
785  3825
784  3925
783  4055
782  3615
781  3910
780  3690
779  3760
778  3790
777  3680
776  3840
775  3780
774  3785
773  4070
772  4095
771  3835
770  3880
769  3925
768  3815
767  4000
766  3885
765  3825
764  4195
763  3895
762  3975
761  3855
760  4190
759  4070
758  4145
757  3890
756  3965
755  3970
754  3990
753  4125
752  4050
751  3870
750  3855
749  3745
748  4410
747  3875
746  4080
745  4155
744  4000
743  4055
742  4270
741  4155
740  4215
739  3925
738  4115
737  4240
736  4155
735  4205
734  3970
733  4095
732  4365
731  4060
730  4235
729  3985
728  4195
727  3940
726  4315
725  4415
724  4275
723  4425
722  4285
721  4450
720  4270
719  4320
718  4475
717  4330
716  4345
715  4565
714  4550
713  4405
712  4310
711  4310
710  4210
709  4545
708  4445
707  5100
706  5345
705  5655
704  5730
703  5555
702  5060
701  4025
700  4360
699  4105
698  4320
697  4130
696  4220
695  3880
694  4370
693  4310
692  4050
691  4395
690  3600
689  4005
688  4160
687  4160
686  4130
685  3865
684  4040
683  4360
682  4365
681  4160
680  4010
679  4210
678  4065
677  4195
676  3655
675  3970
674  4045
673  4220
672  3930
671  4485
670  4945
669  5300
668  6735
667  7365
666  7605
665  6490
664  5185
663  4610
662  3965
661  3925
660  3735
659  3845
658  3715
657  3860
656  4125
655  3855
654  3675
653  3595
652  3445
651  3515
650  3465
649  3440
648  3535
647  3505
646  3635
645  3340
644  3420
643  3565
642  3345
641  3455
640  3345
639  3305
638  3510
637  3550
636  3510
635  3205
634  3360
633  3410
632  3430
631  3520
630  3445
629  3675
628  3435
627  3435
626  3425
625  3395
624  3645
623  3425
622  3605
621  3425
620  3155
619  3470
618  3475
617  3410
616  3450
615  3540
614  3365
613  3440
612  3445
611  3385
610  3655
609  3510
608  3820
607  3495
606  3590
605  3500
604  3575
603  3555
602  3820
601  3495
600  3790
599  3675
598  3620
597  3585
596  3690
595  3580
594  3805
593  3570
592  3730
591  3935
590  3735
589  3530
588  3715
587  3430
586  3560
585  3680
584  3500
583  3515
582  3430
581  3730
580  3960
579  3795
578  3575
577  3730
576  3685
575  3800
574  3840
573  3680
572  3450
571  3765
570  3925
569  3935
568  3950
567  3595
566  3765
565  3900
564  3720
563  4025
562  3750
561  3940
560  3895
559  3950
558  3885
557  3905
556  3805
555  3760
554  3965
553  3605
552  3975
551  3880
550  4220
549  3950
548  4095
547  4110
546  4410
545  4220
544  3960
543  3610
542  3725
541  3880
540  3700
539  3915
538  3540
537  3740
536  3830
535  3785
534  4110
533  4755
532  6030
531  7250
530  6160
529  4545
528  3895
527  3485
526  3685
525  3595
524  3920
523  3920
522  3670
521  3880
520  3775
519  3695
518  3630
517  3670
516  3780
515  3530
514  3660
513  3785
512  3865
511  3740
510  3940
509  3585
508  3720
507  3805
506  3705
505  3620
504  3610
503  3920
502  3750
501  3695
500  3800
499  3790
498  3895
497  4240
496  4145
495  4135
494  3925
493  3680
492  3560
491  3790
490  3930
489  4020
488  4380
487  4735
486  4025
485  3955
484  3695
483  3780
482  3595
481  3880
480  4110
479  3885
478  3785
477  3515
476  3845
475  3775
474  3840
473  3885
472  4080
471  3955
470  3995
469  4005
468  4040
467  4105
466  4025
465  4195
464  3935
463  4275
462  4095
461  3660
460  3795
459  3680
458  3740
457  3745
456  4295
455  5435
454  9455
453  13345
452  11160
451  5715
450  3025
449  3180
448  4280
447  8325
446  15420
445  17420
444  10500
443  4620
442  2960
441  2460
440  1900
439  1760
438  1725
437  1950
436  2610
435  2885
434  2415
433  2150
432  1645
431  1360
430  1365
429  1255
428  1335
427  1295
426  1310
425  1330
424  1270
423  1305
422  1260
421  1305
420  1220
419  1320
418  1265
417  1190
416  1230
415  1170
414  1270
413  1165
412  1155
411  1230
410  1245
409  1055
408  1165
407  1310
406  1240
405  1220
404  1105
403  1185
402  1160
401  1230
400  1260
399  1245
398  1240
397  1345
396  1075
395  1170
394  1200
393  1180
392  1110
391  1175
390  1240
389  1155
388  1330
387  1355
386  1335
385  1375
384  1315
383  1280
382  1295
381  1170
380  1450
379  1335
378  1345
377  1330
376  1310
375  1155
374  1255
373  1080
372  1150
371  1170
370  1090
369  1075
368  1065
367  1210
366  1205
365  1060
364  1065
363  1170
362  1160
361  1115
360  1270
359  1150
358  1080
357  1110
356  1055
355  1150
354  1050
353  1155
352  1215
351  1015
350  1190
349  1180
348  1255
347  1105
346  1175
345  1135
344  1150
343  1255
342  1180
341  1240
340  1070
339  1100
338  1080
337  1110
336  1155
335  1195
334  1090
333  1170
332  1025
331  1115
330  1090
329  1145
328  1140
327  1100
326  1115
325  1085
324  1240
323  1110
322  1315
321  1255
320  1185
319  1200
318  1160
317  1095
316  1155
315  1345
314  1275
313  1040
312  1150
311  1315
310  1110
309  1125
308  1305
307  1185
306  1250
305  1125
304  1120
303  1170
302  1170
301  1315
300  1185
299  1085
298  1120
297  1225
296  1220
295  1155
294  1220
293  1130
292  1220
291  1355
290  1205
289  1260
288  1350
287  1405
286  1245
285  1310
284  1160
283  1195
282  1285
281  1190
280  1160
279  1235
278  1050
277  1275
276  1275
275  1270
274  1070
273  1285
272  1325
271  1190
270  1240
269  1195
268  1260
267  995
266  1215
265  1265
264  1145
263  1235
262  1220
261  1070
260  1185
259  1265
258  1275
257  1075
256  1270
255  1275
254  1270
253  1205
252  1305
251  1255
250  1170
249  1130
248  1250
247  1245
246  1365
245  1185
244  1200
243  1350
242  1280
241  1175
240  1240
239  990
238  1105
237  1175
236  1170
235  1300
234  1180
233  1235
232  1205
231  1240
230  1150
229  1260
228  1230
227  1210
226  1105
225  1430
224  1250
223  1130
222  1305
221  1250
220  1375
219  1330
218  1315
217  1220
216  1320
215  1335
214  1190
213  1275
212  1165
211  1320
210  1190
209  1275
208  1260
207  1140
206  1310
205  1170
204  1310
203  1325
202  1335
201  1330
200  1255
199  1455
198  1190
197  1320
196  1375
195  1190
194  1335
193  1175
192  1490
191  1225
190  1190
189  1205
188  1270
187  1235
186  1350
185  1180
184  1275
183  1385
182  1470
181  1330
180  1305
179  1385
178  1165
177  1295
176  1245
175  1480
174  1275
173  1215
172  1055
171  1450
170  1390
169  1430
168  1415
167  1230
166  1320
165  1380
164  1320
163  1525
162  1425
161  1370
160  1300
159  1245
158  1320
157  1215
156  1250
155  1350
154  1350
153  1245
152  1220
151  1255
150  1495
149  1290
148  1330
147  1235
146  1320
145  1405
144  1160
143  1180
142  1320
141  1250
140  1395
139  1290
138  1425
137  1280
136  1305
135  1430
134  1200
133  1395
132  1460
131  1540
130  1350
129  1330
128  1475
127  1370
126  1420
125  1695
124  1500
123  1485
122  1645
121  1425
120  1465
119  1465
118  1355
117  1295
116  1440
115  1290
114  1470
113  1565
112  1365
111  1330
110  1330
109  1390
108  1350
107  1495
106  1365
105  1430
104  1460
103  1375
102  1295
101  1525
100  1265
99  1385
98  1435
97  1545
96  1465
95  1470
94  1565
93  1360
92  1320
91  1515
90  1400
89  1475
88  1595
87  1635
86  1695
85  1630
84  1670
83  1700
82  1675
81  1685
80  1745
79  1590
78  1590
77  1485
76  1520
75  1545
74  1360
73  1380
72  1320
71  1170
70  1215
69  1145
68  1190
67  1120
66  1115
65  1015
64  1145
63  1015
62  1110
61  1025
60  1120
59  980
58  1050
57  995
56  1025
55  905
54  1005
53  1060
52  995
51  1020
50  1020
49  965
48  975
47  1105
46  1005
45  1115
44  1120
43  1095
42  995
41  1015
40  1075
39  1050
38  1155
37  925
36  1110
35  1055
34  1045
33  1055
32  960
31  1045
30  940
29  1065
28  1140
27  1350
26  1145
25  1060
24  1055
23  1245
22  1295
21  1540
20  2740
19  3730
18  3460
17  1715
16  990
15  835
14  725
13  810
12  810
11  870
10  915
9  1000
8  960
7  930
6  810
5  855
4  765
3  680
2  715
1  640
-2.2737368e-013  665
-1  630
-2  585
-3  615
-4  570

# Region:            C1s
# Acquisition Date:  08/22/22 16:00:21 UTC
# Analysis Method:   XPS
# Analyzer:          Phoibos 100 R6
# Analyzer Lens:     LargeArea:1.5kV
# Analyzer Slit:     1:0.2x20\B:open
# Scan Mode:         FixedAnalyzerTransmission
# Curves/Scan:       1
# Values/Curve:      151
# Dwell Time:        0.8
# Excitation Energy: 1486.61
# Binding Energy:    295
# Pass Energy:       30
# Bias Voltage:      90
# Detector Voltage:  2600
# Eff. Workfunction: 4.309
# Source:            X-Ray Dummy
# Comment:           
#
# Cycle: 0
# Number of Scans: 1
#
# Cycle: 0, Curve: 0
# Acquisition Date: 08/22/22 16:00:21 UTC
#
# ColumnLabels: energy counts/s
#
295  821.25
294.9  891.25
294.8  918.75
294.7  875
294.6  945
294.5  907.5
294.4  951.25
294.3  853.75
294.2  906.25
294.1  887.5
294  886.25
293.9  942.5
293.8  906.25
293.7  881.25
293.6  933.75
293.5  841.25
293.4  872.5
293.3  893.75
293.2  927.5
293.1  886.25
293  912.5
292.9  910
292.8  876.25
292.7  920
292.6  870
292.5  877.5
292.4  926.25
292.3  881.25
292.2  963.75
292.1  931.25
292  947.5
291.9  858.75
291.8  896.25
291.7  901.25
291.6  847.5
291.5  855
291.4  925
291.3  855
291.2  875
291.1  901.25
291  920
290.9  863.75
290.8  875
290.7  886.25
290.6  902.5
290.5  933.75
290.4  942.5
290.3  830
290.2  863.75
290.1  947.5
290  887.5
289.9  911.25
289.8  900
289.7  886.25
289.6  858.75
289.5  942.5
289.4  898.75
289.3  908.75
289.2  916.25
289.1  912.5
289  867.5
288.9  956.25
288.8  908.75
288.7  881.25
288.6  961.25
288.5  1018.75
288.4  946.25
288.3  987.5
288.2  1011.25
288.1  951.25
288  1033.75
287.9  987.5
287.8  968.75
287.7  957.5
287.6  1037.5
287.5  1005
287.4  992.5
287.3  1016.25
287.2  1037.5
287.1  991.25
287  1068.75
286.9  1073.75
286.8  966.25
286.7  1025
286.6  963.75
286.5  992.5
286.4  1053.75
286.3  1027.5
286.2  1067.5
286.1  1028.75
286  1041.25
285.9  995
285.8  981.25
285.7  1000
285.6  995
285.5  945
285.4  937.5
285.3  947.5
285.2  955
285.1  990
285  881.25
284.9  871.25
284.8  912.5
284.7  912.5
284.6  895
284.5  821.25
284.4  938.75
284.3  890
284.2  883.75
284.1  881.25
284  908.75
283.9  867.5
283.8  861.25
283.7  885
283.6  882.5
283.5  905
283.4  898.75
283.3  882.5
283.2  900
283.1  918.75
283  916.25
282.9  930
282.8  837.5
282.7  867.5
282.6  916.25
282.5  905
282.4  801.25
282.3  868.75
282.2  847.5
282.1  886.25
282  868.75
281.9  906.25
281.8  812.5
281.7  917.5
281.6  893.75
281.5  875
281.4  861.25
281.3  847.5
281.2  908.75
281.1  912.5
281  903.75
280.9  910
280.8  795
280.7  880
280.6  886.25
280.5  887.5
280.4  896.25
280.3  890
280.2  885
280.1  863.75
280  893.75

# Region:            N1s
# Acquisition Date:  08/22/22 16:01:44 UTC
# Analysis Method:   XPS
# Analyzer:          Phoibos 100 R6
# Analyzer Lens:     LargeArea:1.5kV
# Analyzer Slit:     1:0.2x20\B:open
# Scan Mode:         FixedAnalyzerTransmission
# Curves/Scan:       1
# Values/Curve:      101
# Dwell Time:        0.8
# Excitation Energy: 1486.61
# Binding Energy:    405
# Pass Energy:       30
# Bias Voltage:      90
# Detector Voltage:  2600
# Eff. Workfunction: 4.309
# Source:            X-Ray Dummy
# Comment:           
#
# Cycle: 0
# Number of Scans: 1
#
# Cycle: 0, Curve: 0
# Acquisition Date: 08/22/22 16:01:44 UTC
#
# ColumnLabels: energy counts/s
#
405  1075
404.9  982.5
404.8  1006.25
404.7  1001.25
404.6  951.25
404.5  1013.75
404.4  1011.25
404.3  1008.75
404.2  971.25
404.1  958.75
404  1013.75
403.9  997.5
403.8  948.75
403.7  1015
403.6  1000
403.5  1003.75
403.4  975
403.3  1025
403.2  912.5
403.1  1002.5
403  985
402.9  983.75
402.8  966.25
402.7  1003.75
402.6  996.25
402.5  1040
402.4  1026.25
402.3  975
402.2  1046.25
402.1  1016.25
402  1042.5
401.9  1027.5
401.8  993.75
401.7  1081.25
401.6  985
401.5  995
401.4  1013.75
401.3  1022.5
401.2  1052.5
401.1  983.75
401  1006.25
400.9  1036.25
400.8  998.75
400.7  990
400.6  965
400.5  992.5
400.4  983.75
400.3  1020
400.2  1025
400.1  992.5
400  998.75
399.9  1023.75
399.8  1005
399.7  1005
399.6  910
399.5  1000
399.4  910
399.3  968.75
399.2  980
399.1  958.75
399  1021.25
398.9  942.5
398.8  1046.25
398.7  978.75
398.6  1001.25
398.5  950
398.4  973.75
398.3  997.5
398.2  1017.5
398.1  955
398  973.75
397.9  952.5
397.8  908.75
397.7  951.25
397.6  915
397.5  981.25
397.4  981.25
397.3  986.25
397.2  902.5
397.1  926.25
397  921.25
396.9  1015
396.8  947.5
396.7  990
396.6  946.25
396.5  1007.5
396.4  937.5
396.3  960
396.2  990
396.1  976.25
396  1001.25
395.9  998.75
395.8  980
395.7  1015
395.6  922.5
395.5  997.5
395.4  1005
395.3  920
395.2  921.25
395.1  967.5
395  997.5

# Region:            Ba3d
# Acquisition Date:  08/22/22 16:03:22 UTC
# Analysis Method:   XPS
# Analyzer:          Phoibos 100 R6
# Analyzer Lens:     LargeArea:1.5kV
# Analyzer Slit:     1:0.2x20\B:open
# Scan Mode:         FixedAnalyzerTransmission
# Curves/Scan:       1
# Values/Curve:      121
# Dwell Time:        0.8
# Excitation Energy: 1486.61
# Binding Energy:    789
# Pass Energy:       30
# Bias Voltage:      90
# Detector Voltage:  2600
# Eff. Workfunction: 4.309
# Source:            X-Ray Dummy
# Comment:           
#
# Cycle: 0
# Number of Scans: 1
#
# Cycle: 0, Curve: 0
# Acquisition Date: 08/22/22 16:03:22 UTC
#
# ColumnLabels: energy counts/s
#
789  4806.25
788.9  4702.5
788.8  4777.5
788.7  4678.75
788.6  4667.5
788.5  4592.5
788.4  4527.5
788.3  4615
788.2  4537.5
788.1  4612.5
788  4645
787.9  4618.75
787.8  4493.75
787.7  4542.5
787.6  4783.75
787.5  4667.5
787.4  4611.25
787.3  4587.5
787.2  4567.5
787.1  4600
787  4703.75
786.9  4496.25
786.8  4693.75
786.7  4735
786.6  4781.25
786.5  4550
786.4  4685
786.3  4696.25
786.2  4532.5
786.1  4602.5
786  4737.5
785.9  4742.5
785.8  4567.5
785.7  4501.25
785.6  4630
785.5  4521.25
785.4  4798.75
785.3  4702.5
785.2  4570
785.1  4623.75
785  4731.25
784.9  4705
784.8  4688.75
784.7  4653.75
784.6  4647.5
784.5  4637.5
784.4  4628.75
784.3  4593.75
784.2  4590
784.1  4573.75
784  4820
783.9  4630
783.8  4718.75
783.7  4497.5
783.6  4621.25
783.5  4833.75
783.4  4663.75
783.3  4628.75
783.2  4613.75
783.1  4626.25
783  4656.25
782.9  4596.25
782.8  4617.5
782.7  4778.75
782.6  4588.75
782.5  4655
782.4  4548.75
782.3  4776.25
782.2  4840
782.1  4751.25
782  4602.5
781.9  4666.25
781.8  4565
781.7  4611.25
781.6  4671.25
781.5  4697.5
781.4  4650
781.3  4661.25
781.2  4717.5
781.1  4591.25
781  4660
780.9  4717.5
780.8  4572.5
780.7  4671.25
780.6  4725
780.5  4677.5
780.4  4607.5
780.3  4630
780.2  4787.5
780.1  4575
780  4665
779.9  4695
779.8  4626.25
779.7  4743.75
779.6  4566.25
779.5  4693.75
779.4  4635
779.3  4657.5
779.2  4621.25
779.1  4876.25
779  4595
778.9  4530
778.8  4638.75
778.7  4448.75
778.6  4661.25
778.5  4740
778.4  4506.25
778.3  4678.75
778.2  4658.75
778.1  4735
778  4751.25
777.9  4783.75
777.8  4547.5
777.7  4645
777.6  4637.5
777.5  4613.75
777.4  4621.25
777.3  4581.25
777.2  4823.75
777.1  4602.5
777  4692.5

# Region:            Cl2p
# Acquisition Date:  08/22/22 16:04:53 UTC
# Analysis Method:   XPS
# Analyzer:          Phoibos 100 R6
# Analyzer Lens:     LargeArea:1.5kV
# Analyzer Slit:     1:0.2x20\B:open
# Scan Mode:         FixedAnalyzerTransmission
# Curves/Scan:       1
# Values/Curve:      111
# Dwell Time:        0.8
# Excitation Energy: 1486.61
# Binding Energy:    207
# Pass Energy:       30
# Bias Voltage:      90
# Detector Voltage:  2600
# Eff. Workfunction: 4.309
# Source:            X-Ray Dummy
# Comment:           
#
# Cycle: 0
# Number of Scans: 1
#
# Cycle: 0, Curve: 0
# Acquisition Date: 08/22/22 16:04:53 UTC
#
# ColumnLabels: energy counts/s
#
207  861.25
206.9  870
206.8  847.5
206.7  878.75
206.6  863.75
206.5  840
206.4  891.25
206.3  793.75
206.2  791.25
206.1  917.5
206  862.5
205.9  808.75
205.8  843.75
205.7  911.25
205.6  842.5
205.5  872.5
205.4  795
205.3  828.75
205.2  826.25
205.1  913.75
205  851.25
204.9  871.25
204.8  870
204.7  832.5
204.6  862.5
204.5  872.5
204.4  860
204.3  872.5
204.2  895
204.1  861.25
204  897.5
203.9  913.75
203.8  927.5
203.7  907.5
203.6  890
203.5  885
203.4  905
203.3  840
203.2  878.75
203.1  818.75
203  898.75
202.9  886.25
202.8  940
202.7  901.25
202.6  867.5
202.5  833.75
202.4  950
202.3  898.75
202.2  910
202.1  940
202  903.75
201.9  832.5
201.8  866.25
201.7  943.75
201.6  898.75
201.5  926.25
201.4  898.75
201.3  851.25
201.2  926.25
201.1  885
201  883.75
200.9  860
200.8  885
200.7  937.5
200.6  900
200.5  878.75
200.4  911.25
200.3  885
200.2  920
200.1  907.5
200  957.5
199.9  982.5
199.8  932.5
199.7  908.75
199.6  902.5
199.5  862.5
199.4  873.75
199.3  940
199.2  918.75
199.1  988.75
199  917.5
198.9  950
198.8  936.25
198.7  940
198.6  881.25
198.5  908.75
198.4  907.5
198.3  855
198.2  925
198.1  880
198  856.25
197.9  896.25
197.8  917.5
197.7  950
197.6  931.25
197.5  868.75
197.4  876.25
197.3  883.75
197.2  877.5
197.1  902.5
197  862.5
196.9  827.5
196.8  871.25
196.7  875
196.6  886.25
196.5  832.5
196.4  877.5
196.3  958.75
196.2  880
196.1  876.25
196  880

# Region:            Sn3d
# Acquisition Date:  08/22/22 16:08:01 UTC
# Analysis Method:   XPS
# Analyzer:          Phoibos 100 R6
# Analyzer Lens:     LargeArea:1.5kV
# Analyzer Slit:     1:0.2x20\B:open
# Scan Mode:         FixedAnalyzerTransmission
# Curves/Scan:       1
# Values/Curve:      231
# Dwell Time:        0.8
# Excitation Energy: 1486.61
# Binding Energy:    503
# Pass Energy:       30
# Bias Voltage:      90
# Detector Voltage:  2600
# Eff. Workfunction: 4.309
# Source:            X-Ray Dummy
# Comment:           
#
# Cycle: 0
# Number of Scans: 1
#
# Cycle: 0, Curve: 0
# Acquisition Date: 08/22/22 16:08:01 UTC
#
# ColumnLabels: energy counts/s
#
503  3160
502.9  3177.5
502.8  3278.75
502.7  3201.25
502.6  3192.5
502.5  3161.25
502.4  3150
502.3  3157.5
502.2  3093.75
502.1  3175
502  3162.5
501.9  3228.75
501.8  3292.5
501.7  3093.75
501.6  3117.5
501.5  3243.75
501.4  3202.5
501.3  3168.75
501.2  3227.5
501.1  3166.25
501  3218.75
500.9  3222.5
500.8  3212.5
500.7  3256.25
500.6  3212.5
500.5  3171.25
500.4  3098.75
500.3  3148.75
500.2  3227.5
500.1  3185
500  3155
499.9  3097.5
499.8  3281.25
499.7  3156.25
499.6  3177.5
499.5  3152.5
499.4  3198.75
499.3  3246.25
499.2  3165
499.1  3311.25
499  3227.5
498.9  3171.25
498.8  3152.5
498.7  3177.5
498.6  3223.75
498.5  3248.75
498.4  3287.5
498.3  3341.25
498.2  3345
498.1  3311.25
498  3176.25
497.9  3291.25
497.8  3345
497.7  3271.25
497.6  3255
497.5  3392.5
497.4  3283.75
497.3  3408.75
497.2  3465
497.1  3345
497  3495
496.9  3536.25
496.8  3625
496.7  3522.5
496.6  3542.5
496.5  3578.75
496.4  3520
496.3  3671.25
496.2  3707.5
496.1  3663.75
496  3595
495.9  3770
495.8  3616.25
495.7  3690
495.6  3767.5
495.5  3751.25
495.4  3721.25
495.3  3632.5
495.2  3611.25
495.1  3520
495  3558.75
494.9  3591.25
494.8  3335
494.7  3483.75
494.6  3475
494.5  3357.5
494.4  3413.75
494.3  3345
494.2  3390
494.1  3236.25
494  3252.5
493.9  3226.25
493.8  3145
493.7  3261.25
493.6  3112.5
493.5  3202.5
493.4  3116.25
493.3  3208.75
493.2  3116.25
493.1  3182.5
493  3041.25
492.9  3146.25
492.8  3021.25
492.7  3163.75
492.6  3092.5
492.5  3045
492.4  2978.75
492.3  3085
492.2  3096.25
492.1  3138.75
492  3117.5
491.9  3062.5
491.8  3088.75
491.7  3055
491.6  3183.75
491.5  3133.75
491.4  3128.75
491.3  3207.5
491.2  3180
491.1  3211.25
491  3100
490.9  3221.25
490.8  3171.25
490.7  3126.25
490.6  3078.75
490.5  3171.25
490.4  2985
490.3  3147.5
490.2  3186.25
490.1  3190
490  3208.75
489.9  3252.5
489.8  3213.75
489.7  3281.25
489.6  3301.25
489.5  3376.25
489.4  3282.5
489.3  3307.5
489.2  3366.25
489.1  3385
489  3462.5
488.9  3561.25
488.8  3441.25
488.7  3611.25
488.6  3666.25
488.5  3515
488.4  3600
488.3  3853.75
488.2  3590
488.1  3713.75
488  3887.5
487.9  3912.5
487.8  3673.75
487.7  3888.75
487.6  3928.75
487.5  3990
487.4  3963.75
487.3  3905
487.2  4021.25
487.1  3985
487  3990
486.9  4028.75
486.8  3826.25
486.7  3808.75
486.6  3727.5
486.5  3778.75
486.4  3678.75
486.3  3580
486.2  3651.25
486.1  3598.75
486  3495
485.9  3482.5
485.8  3316.25
485.7  3377.5
485.6  3318.75
485.5  3251.25
485.4  3155
485.3  3200
485.2  3116.25
485.1  3162.5
485  3150
484.9  3130
484.8  3175
484.7  3138.75
484.6  3270
484.5  3267.5
484.4  3152.5
484.3  3167.5
484.2  3083.75
484.1  3106.25
484  3171.25
483.9  3046.25
483.8  3098.75
483.7  3095
483.6  3030
483.5  3027.5
483.4  3040
483.3  3273.75
483.2  3218.75
483.1  3021.25
483  3093.75
482.9  3031.25
482.8  3022.5
482.7  3101.25
482.6  3058.75
482.5  3125
482.4  3028.75
482.3  3191.25
482.2  3113.75
482.1  3132.5
482  3082.5
481.9  2991.25
481.8  3165
481.7  3108.75
481.6  3171.25
481.5  3148.75
481.4  3123.75
481.3  3145
481.2  3097.5
481.1  3147.5
481  3100
480.9  3026.25
480.8  3070
480.7  3081.25
480.6  3122.5
480.5  3170
480.4  3055
480.3  3147.5
480.2  3131.25
480.1  3083.75
480  3142.5

# Region:            In3d
# Acquisition Date:  08/22/22 16:11:08 UTC
# Analysis Method:   XPS
# Analyzer:          Phoibos 100 R6
# Analyzer Lens:     LargeArea:1.5kV
# Analyzer Slit:     1:0.2x20\B:open
# Scan Mode:         FixedAnalyzerTransmission
# Curves/Scan:       1
# Values/Curve:      231
# Dwell Time:        0.8
# Excitation Energy: 1486.61
# Binding Energy:    460
# Pass Energy:       30
# Bias Voltage:      90
# Detector Voltage:  2600
# Eff. Workfunction: 4.309
# Source:            X-Ray Dummy
# Comment:           
#
# Cycle: 0
# Number of Scans: 1
#
# Cycle: 0, Curve: 0
# Acquisition Date: 08/22/22 16:11:08 UTC
#
# ColumnLabels: energy counts/s
#
460  3143.75
459.9  3013.75
459.8  2970
459.7  3136.25
459.6  3053.75
459.5  2913.75
459.4  2902.5
459.3  2926.25
459.2  3066.25
459.1  3086.25
459  2903.75
458.9  2963.75
458.8  3041.25
458.7  2913.75
458.6  2896.25
458.5  3010
458.4  2947.5
458.3  2901.25
458.2  3000
458.1  2900
458  2881.25
457.9  2897.5
457.8  3083.75
457.7  3013.75
457.6  2997.5
457.5  2940
457.4  2913.75
457.3  2968.75
457.2  3095
457.1  3011.25
457  3033.75
456.9  2986.25
456.8  3003.75
456.7  3123.75
456.6  3130
456.5  3086.25
456.4  3143.75
456.3  3292.5
456.2  3115
456.1  3303.75
456  3245
455.9  3403.75
455.8  3493.75
455.7  3562.5
455.6  3673.75
455.5  3835
455.4  3892.5
455.3  4028.75
455.2  4205
455.1  4317.5
455  4662.5
454.9  4825
454.8  5112.5
454.7  5248.75
454.6  5657.5
454.5  5982.5
454.4  6352.5
454.3  6695
454.2  7090
454.1  7458.75
454  8098.75
453.9  8546.25
453.8  8985
453.7  9495
453.6  10026.25
453.5  10276.25
453.4  10957.5
453.3  11107.5
453.2  11596.25
453.1  11793.75
453  11878.75
452.9  12140
452.8  12056.25
452.7  11825
452.6  11836.25
452.5  11285
452.4  11106.25
452.3  10311.25
452.2  9672.5
452.1  9215
452  8410
451.9  7647.5
451.8  6961.25
451.7  6391.25
451.6  5473.75
451.5  5101.25
451.4  4671.25
451.3  4320
451.2  4031.25
451.1  3556.25
451  3368.75
450.9  3187.5
450.8  3028.75
450.7  2861.25
450.6  2837.5
450.5  2683.75
450.4  2688.75
450.3  2512.5
450.2  2466.25
450.1  2498.75
450  2443.75
449.9  2421.25
449.8  2435
449.7  2487.5
449.6  2435
449.5  2458.75
449.4  2487.5
449.3  2366.25
449.2  2415
449.1  2595
449  2505
448.9  2681.25
448.8  2627.5
448.7  2638.75
448.6  2800
448.5  3002.5
448.4  3028.75
448.3  3217.5
448.2  3226.25
448.1  3291.25
448  3522.5
447.9  3665
447.8  3828.75
447.7  4146.25
447.6  4356.25
447.5  4640
447.4  4923.75
447.3  5212.5
447.2  5703.75
447.1  6250
447  6678.75
446.9  7076.25
446.8  7737.5
446.7  8360
446.6  8886.25
446.5  9651.25
446.4  10315
446.3  11165
446.2  11541.25
446.1  12385
446  13108.75
445.9  13511.25
445.8  14275
445.7  14897.5
445.6  15182.5
445.5  15833.75
445.4  16020
445.3  15978.75
445.2  15792.5
445.1  15661.25
445  15138.75
444.9  14707.5
444.8  13826.25
444.7  13055
444.6  12210
444.5  11182.5
444.4  10266.25
444.3  9362.5
444.2  8348.75
444.1  7301.25
444  6573.75
443.9  5957.5
443.8  5463.75
443.7  4867.5
443.6  4492.5
443.5  4032.5
443.4  3767.5
443.3  3582.5
443.2  3303.75
443.1  3156.25
443  2943.75
442.9  2940
442.8  2783.75
442.7  2773.75
442.6  2663.75
442.5  2563.75
442.4  2437.5
442.3  2413.75
442.2  2407.5
442.1  2247.5
442  2206.25
441.9  2228.75
441.8  2161.25
441.7  2057.5
441.6  2037.5
441.5  2045
441.4  2053.75
441.3  2026.25
441.2  2027.5
441.1  1860
441  1885
440.9  1880
440.8  1830
440.7  1906.25
440.6  1785
440.5  1866.25
440.4  1563.75
440.3  1762.5
440.2  1605
440.1  1711.25
440  1620
439.9  1605
439.8  1617.5
439.7  1532.5
439.6  1488.75
439.5  1527.5
439.4  1482.5
439.3  1482.5
439.2  1460
439.1  1430
439  1367.5
438.9  1501.25
438.8  1407.5
438.7  1363.75
438.6  1437.5
438.5  1401.25
438.4  1388.75
438.3  1375
438.2  1321.25
438.1  1380
438  1380
437.9  1446.25
437.8  1428.75
437.7  1453.75
437.6  1415
437.5  1461.25
437.4  1443.75
437.3  1528.75
437.2  1551.25
437.1  1635
437  1676.25

# Region:            O1s
# Acquisition Date:  08/22/22 16:12:39 UTC
# Analysis Method:   XPS
# Analyzer:          Phoibos 100 R6
# Analyzer Lens:     LargeArea:1.5kV
# Analyzer Slit:     1:0.2x20\B:open
# Scan Mode:         FixedAnalyzerTransmission
# Curves/Scan:       1
# Values/Curve:      111
# Dwell Time:        0.8
# Excitation Energy: 1486.61
# Binding Energy:    538
# Pass Energy:       30
# Bias Voltage:      90
# Detector Voltage:  2600
# Eff. Workfunction: 4.309
# Source:            X-Ray Dummy
# Comment:           
#
# Cycle: 0
# Number of Scans: 1
#
# Cycle: 0, Curve: 0
# Acquisition Date: 08/22/22 16:12:39 UTC
#
# ColumnLabels: energy counts/s
#
538  3352.5
537.9  3298.75
537.8  3385
537.7  3391.25
537.6  3288.75
537.5  3342.5
537.4  3357.5
537.3  3375
537.2  3317.5
537.1  3375
537  3297.5
536.9  3246.25
536.8  3266.25
536.7  3316.25
536.6  3386.25
536.5  3255
536.4  3323.75
536.3  3292.5
536.2  3365
536.1  3470
536  3340
535.9  3418.75
535.8  3280
535.7  3318.75
535.6  3396.25
535.5  3397.5
535.4  3443.75
535.3  3283.75
535.2  3382.5
535.1  3416.25
535  3488.75
534.9  3417.5
534.8  3607.5
534.7  3511.25
534.6  3466.25
534.5  3538.75
534.4  3455
534.3  3513.75
534.2  3572.5
534.1  3623.75
534  3632.5
533.9  3752.5
533.8  3698.75
533.7  3717.5
533.6  3815
533.5  3817.5
533.4  3963.75
533.3  4056.25
533.2  4075
533.1  4202.5
533  4235
532.9  4272.5
532.8  4421.25
532.7  4492.5
532.6  4711.25
532.5  4743.75
532.4  4862.5
532.3  4966.25
532.2  5097.5
532.1  5173.75
532  5382.5
531.9  5458.75
531.8  5683.75
531.7  5997.5
531.6  5945
531.5  6080
531.4  6293.75
531.3  6523.75
531.2  6723.75
531.1  6583.75
531  6706.25
530.9  6533.75
530.8  6713.75
530.7  6697.5
530.6  6322.5
530.5  6437.5
530.4  6181.25
530.3  6020
530.2  5708.75
530.1  5557.5
530  5263.75
529.9  5098.75
529.8  4622.5
529.7  4490
529.6  4322.5
529.5  4220
529.4  3911.25
529.3  3920
529.2  3742.5
529.1  3616.25
529  3608.75
528.9  3605
528.8  3503.75
528.7  3363.75
528.6  3360
528.5  3338.75
528.4  3346.25
528.3  3346.25
528.2  3222.5
528.1  3350
528  3323.75
527.9  3201.25
527.8  3310
527.7  3163.75
527.6  3287.5
527.5  3237.5
527.4  3176.25
527.3  3266.25
527.2  3213.75
527.1  3160
527  3121.25

# Region:            Si2p
# Acquisition Date:  08/22/22 16:13:37 UTC
# Analysis Method:   XPS
# Analyzer:          Phoibos 100 R6
# Analyzer Lens:     LargeArea:1.5kV
# Analyzer Slit:     1:0.2x20\B:open
# Scan Mode:         FixedAnalyzerTransmission
# Curves/Scan:       1
# Values/Curve:      71
# Dwell Time:        0.8
# Excitation Energy: 1486.61
# Binding Energy:    107
# Pass Energy:       30
# Bias Voltage:      90
# Detector Voltage:  2600
# Eff. Workfunction: 4.309
# Source:            X-Ray Dummy
# Comment:           
#
# Cycle: 0
# Number of Scans: 1
#
# Cycle: 0, Curve: 0
# Acquisition Date: 08/22/22 16:13:37 UTC
#
# ColumnLabels: energy counts/s
#
107  920
106.9  921.25
106.8  862.5
106.7  891.25
106.6  877.5
106.5  911.25
106.4  870
106.3  917.5
106.2  893.75
106.1  872.5
106  891.25
105.9  866.25
105.8  887.5
105.7  873.75
105.6  933.75
105.5  867.5
105.4  950
105.3  911.25
105.2  922.5
105.1  932.5
105  962.5
104.9  961.25
104.8  968.75
104.7  903.75
104.6  972.5
104.5  935
104.4  885
104.3  865
104.2  845
104.1  956.25
104  1008.75
103.9  975
103.8  915
103.7  876.25
103.6  971.25
103.5  912.5
103.4  935
103.3  902.5
103.2  922.5
103.1  875
103  887.5
102.9  891.25
102.8  883.75
102.7  948.75
102.6  906.25
102.5  868.75
102.4  963.75
102.3  925
102.2  898.75
102.1  935
102  898.75
101.9  903.75
101.8  905
101.7  936.25
101.6  898.75
101.5  916.25
101.4  958.75
101.3  952.5
101.2  903.75
101.1  876.25
101  958.75
100.9  922.5
100.8  901.25
100.7  971.25
100.6  866.25
100.5  865
100.4  921.25
100.3  922.5
100.2  938.75
100.1  883.75
100  952.5

