# Created by:        SpecsLab Prodigy, Version 4.60.2-r85849 
#
# XY-Serializer Export Settings:
#   Comment Prefix:           #
#   Output meta data:         yes
#   Energy Axis:              Binding Energy
#   Count Rate:               Counts per Second
#   Separate Scan Data:       no
#   Separate Channel Data:    no
#   External Channel Data:    yes
#   Transmission Function:    no
#   ErrorBar:                 no
#   Operation Results:        yes
#   Time Zone Format:         UTC
#
# Group:             Spectrum Group
#
# Region:            overview
# Acquisition Date:  08/22/22 13:55:00 UTC
# Analysis Method:   XPS
# Analyzer:          Phoibos 100 R6
# Analyzer Lens:     MediumArea:1.5kV
# Analyzer Slit:     1:0.2x20\B:open
# Scan Mode:         FixedAnalyzerTransmission
# Curves/Scan:       1
# Values/Curve:      1205
# Dwell Time:        0.2
# Excitation Energy: 1486.61
# Binding Energy:    1200
# Pass Energy:       50
# Bias Voltage:      90
# Detector Voltage:  2600
# Eff. Workfunction: 4.309
# Source:            X-Ray Dummy
# Comment:           
#
# Cycle: 0
# Number of Scans: 1
#
# Cycle: 0, Curve: 0
# Acquisition Date: 08/22/22 13:55:00 UTC
#
# ColumnLabels: energy counts/s
#
1200  10750
1199  10440
1198  10365
1197  10945
1196  11115
1195  10835
1194  10545
1193  10600
1192  10850
1191  10770
1190  10425
1189  10600
1188  10095
1187  10435
1186  10260
1185  9990
1184  9910
1183  10030
1182  9720
1181  9700
1180  9570
1179  9350
1178  9405
1177  9305
1176  9730
1175  9420
1174  10345
1173  9500
1172  9665
1171  9585
1170  9830
1169  9840
1168  9540
1167  9390
1166  9770
1165  10110
1164  9740
1163  9445
1162  9885
1161  10050
1160  9815
1159  9730
1158  10125
1157  9880
1156  10135
1155  9640
1154  9735
1153  9645
1152  9735
1151  9650
1150  9680
1149  9695
1148  9840
1147  9630
1146  9390
1145  9315
1144  9235
1143  8965
1142  8675
1141  8885
1140  8255
1139  8460
1138  8090
1137  8065
1136  8100
1135  7925
1134  7820
1133  7440
1132  7340
1131  7480
1130  7280
1129  7175
1128  7315
1127  7285
1126  7200
1125  7155
1124  7305
1123  7220
1122  6935
1121  7160
1120  7265
1119  7070
1118  7100
1117  6905
1116  7035
1115  7095
1114  7220
1113  7100
1112  7195
1111  6850
1110  7000
1109  7215
1108  7145
1107  7160
1106  7300
1105  7325
1104  7395
1103  7400
1102  7310
1101  7500
1100  7415
1099  7580
1098  7285
1097  7540
1096  7540
1095  7770
1094  7945
1093  8695
1092  8720
1091  8865
1090  9145
1089  9635
1088  10890
1087  11710
1086  12135
1085  11455
1084  10025
1083  9735
1082  9025
1081  8980
1080  9285
1079  9010
1078  8050
1077  7420
1076  6530
1075  6035
1074  5815
1073  5420
1072  5530
1071  5350
1070  5105
1069  5405
1068  5490
1067  5655
1066  5240
1065  5330
1064  5160
1063  5605
1062  5355
1061  5275
1060  5215
1059  5510
1058  5360
1057  4840
1056  4685
1055  5060
1054  5245
1053  4615
1052  4875
1051  4995
1050  4720
1049  4600
1048  4455
1047  4655
1046  4635
1045  4395
1044  4750
1043  4635
1042  4650
1041  4775
1040  4585
1039  4835
1038  4745
1037  4585
1036  4810
1035  4510
1034  4790
1033  4660
1032  4130
1031  4640
1030  4720
1029  4555
1028  4290
1027  4360
1026  4580
1025  4480
1024  4405
1023  4690
1022  4580
1021  4325
1020  4570
1019  4570
1018  4775
1017  4725
1016  4610
1015  4660
1014  4585
1013  4850
1012  4680
1011  4860
1010  4750
1009  4530
1008  4545
1007  4905
1006  4465
1005  4525
1004  4465
1003  4805
1002  4600
1001  4660
1000  4565
999  4745
998  4810
997  4790
996  4785
995  4705
994  4855
993  4615
992  4720
991  4445
990  4490
989  4570
988  4755
987  4590
986  4770
985  4580
984  4550
983  4405
982  4140
981  4545
980  4515
979  4850
978  4610
977  4740
976  5305
975  5610
974  5840
973  5365
972  5000
971  4425
970  4755
969  4560
968  4365
967  4310
966  4190
965  4320
964  4140
963  4080
962  4000
961  4145
960  4185
959  4125
958  3900
957  4065
956  4120
955  4130
954  4095
953  4150
952  4355
951  4040
950  4115
949  4160
948  3940
947  4000
946  4050
945  4255
944  4135
943  3910
942  3875
941  4085
940  3770
939  4115
938  4345
937  3980
936  4115
935  4130
934  3815
933  4320
932  4195
931  3865
930  4135
929  4135
928  4060
927  4070
926  4205
925  4215
924  3865
923  4150
922  4335
921  3915
920  4005
919  4300
918  3935
917  4015
916  3920
915  3970
914  3850
913  3895
912  3940
911  3870
910  4200
909  3990
908  4490
907  4205
906  4025
905  4085
904  3960
903  4370
902  3835
901  4070
900  3890
899  4040
898  4325
897  4075
896  4315
895  4075
894  3920
893  4160
892  3985
891  4075
890  4295
889  4135
888  4015
887  4020
886  4190
885  4100
884  4235
883  4200
882  4420
881  4260
880  4145
879  3840
878  4320
877  3790
876  4105
875  4025
874  4305
873  4250
872  4095
871  4020
870  4095
869  4130
868  4180
867  4205
866  3855
865  4080
864  4340
863  4235
862  4235
861  4115
860  4155
859  4470
858  4100
857  4115
856  4300
855  3990
854  4235
853  4210
852  4325
851  4205
850  4300
849  4330
848  4430
847  4360
846  4300
845  4375
844  4265
843  4285
842  4270
841  4255
840  4350
839  4035
838  4285
837  4170
836  4150
835  4440
834  4305
833  4265
832  4680
831  4375
830  4555
829  4730
828  4835
827  4805
826  4770
825  4550
824  4565
823  4390
822  4430
821  4265
820  4345
819  4415
818  4340
817  4265
816  4270
815  4465
814  4205
813  3940
812  4465
811  4575
810  4100
809  4290
808  4345
807  4120
806  4095
805  4135
804  4075
803  4375
802  4135
801  4260
800  4360
799  4075
798  4135
797  4120
796  4295
795  4250
794  4425
793  4095
792  4245
791  4065
790  4270
789  4220
788  4265
787  4255
786  4095
785  4125
784  4355
783  4280
782  4330
781  4435
780  4210
779  4155
778  4265
777  4270
776  4375
775  4260
774  4410
773  4000
772  4485
771  4285
770  4195
769  4645
768  4165
767  4400
766  4315
765  4420
764  4640
763  4690
762  4265
761  4395
760  4510
759  4780
758  4400
757  4760
756  4420
755  4555
754  4635
753  4455
752  4250
751  4425
750  4440
749  4580
748  4425
747  4445
746  4405
745  4355
744  4535
743  4335
742  4355
741  4565
740  4260
739  4310
738  4485
737  4290
736  4545
735  4535
734  4865
733  4720
732  4630
731  4720
730  4715
729  4520
728  4630
727  4750
726  4590
725  4840
724  4950
723  4500
722  4660
721  4525
720  4845
719  4465
718  4685
717  4880
716  5175
715  4835
714  4825
713  4630
712  4645
711  4685
710  5135
709  5065
708  4870
707  5465
706  5990
705  6445
704  6740
703  6290
702  5660
701  5160
700  4925
699  4975
698  4625
697  4595
696  4860
695  4600
694  4650
693  4595
692  4455
691  4445
690  4140
689  4565
688  4470
687  4685
686  4660
685  4765
684  4690
683  4590
682  4430
681  4775
680  4720
679  4515
678  4485
677  4470
676  4465
675  4560
674  4715
673  4645
672  4570
671  4910
670  5640
669  6400
668  7315
667  8630
666  8790
665  7695
664  6645
663  5355
662  4900
661  4730
660  4400
659  4515
658  4405
657  4440
656  4220
655  4380
654  3940
653  4050
652  4265
651  3980
650  4040
649  3885
648  3510
647  3630
646  3990
645  4115
644  3880
643  3970
642  4105
641  3800
640  3635
639  3785
638  3840
637  3740
636  3690
635  3885
634  3855
633  3655
632  3635
631  3855
630  3900
629  3770
628  3900
627  3585
626  3840
625  3810
624  3950
623  4015
622  3745
621  3860
620  3905
619  3795
618  4045
617  3770
616  3655
615  3940
614  3795
613  4150
612  4055
611  3670
610  3845
609  3700
608  3505
607  3925
606  4120
605  4035
604  3835
603  3665
602  3995
601  4065
600  4100
599  4190
598  4055
597  3925
596  4345
595  4000
594  3945
593  4110
592  3755
591  4150
590  4165
589  3930
588  3960
587  4205
586  3975
585  3985
584  4075
583  3825
582  4180
581  4080
580  4055
579  4230
578  3915
577  4015
576  4320
575  3965
574  3955
573  4140
572  4030
571  4075
570  4340
569  4415
568  4290
567  4080
566  4110
565  3925
564  4130
563  4100
562  4350
561  4170
560  4250
559  4220
558  4200
557  4350
556  4335
555  4150
554  4245
553  4460
552  4550
551  4530
550  4290
549  4340
548  4625
547  4275
546  4335
545  4230
544  4210
543  4260
542  4215
541  3990
540  4505
539  4295
538  4200
537  4330
536  4350
535  4300
534  4280
533  4885
532  6185
531  7915
530  7540
529  5570
528  4225
527  4110
526  4195
525  3905
524  4095
523  4085
522  4010
521  4275
520  4285
519  4400
518  4035
517  3935
516  4085
515  3970
514  4020
513  4085
512  4110
511  3915
510  3825
509  4015
508  4135
507  3960
506  3845
505  4260
504  4115
503  3850
502  4030
501  4180
500  4015
499  3865
498  4245
497  4705
496  4820
495  4580
494  4180
493  4060
492  4150
491  4135
490  4175
489  4255
488  4690
487  5200
486  4830
485  4110
484  3925
483  3935
482  3835
481  3620
480  3920
479  4115
478  4085
477  4195
476  4005
475  3970
474  3950
473  4265
472  4350
471  4395
470  4250
469  4195
468  4305
467  4345
466  4465
465  4165
464  4420
463  4360
462  4355
461  4525
460  4505
459  4190
458  4225
457  4300
456  4955
455  6230
454  10335
453  16280
452  14350
451  7475
450  4140
449  3745
448  4710
447  8765
446  17160
445  21525
444  13630
443  6365
442  3600
441  2695
440  2265
439  1940
438  1855
437  2200
436  2805
435  2995
434  2675
433  2560
432  2080
431  1605
430  1590
429  1310
428  1385
427  1305
426  1470
425  1440
424  1505
423  1395
422  1365
421  1220
420  1285
419  1255
418  1280
417  1355
416  1240
415  1395
414  1230
413  1335
412  1280
411  1350
410  1275
409  1470
408  1215
407  1390
406  1190
405  1375
404  1300
403  1270
402  1225
401  1225
400  1285
399  1245
398  1250
397  1270
396  1120
395  1450
394  1235
393  1375
392  1405
391  1220
390  1245
389  1445
388  1320
387  1385
386  1315
385  1415
384  1360
383  1480
382  1435
381  1390
380  1325
379  1570
378  1375
377  1365
376  1475
375  1310
374  1490
373  1380
372  1360
371  1145
370  1170
369  1010
368  1185
367  1360
366  1160
365  1355
364  1220
363  1280
362  1275
361  1220
360  1255
359  1245
358  1240
357  1240
356  1185
355  1220
354  1230
353  1240
352  1350
351  1090
350  1135
349  1195
348  1255
347  1295
346  1295
345  1305
344  1265
343  1125
342  1260
341  1255
340  1365
339  1280
338  1320
337  1290
336  1280
335  1235
334  1305
333  1065
332  1135
331  1125
330  1250
329  970
328  1255
327  1280
326  1050
325  1270
324  1215
323  1325
322  1290
321  1205
320  1195
319  1170
318  1285
317  1270
316  1325
315  1190
314  1265
313  1300
312  1300
311  1245
310  1415
309  1420
308  1275
307  1390
306  1310
305  1355
304  1225
303  1175
302  1315
301  1305
300  1295
299  1315
298  1215
297  1215
296  1345
295  1230
294  1205
293  1190
292  1340
291  1195
290  1190
289  1315
288  1285
287  1370
286  1385
285  1235
284  1190
283  1315
282  1325
281  1295
280  1285
279  1260
278  1255
277  1275
276  1365
275  1295
274  1265
273  1200
272  1250
271  1280
270  1290
269  1410
268  1210
267  1290
266  1275
265  1315
264  1305
263  1330
262  1490
261  1355
260  1360
259  1410
258  1365
257  1225
256  1120
255  1125
254  1460
253  1200
252  1295
251  1360
250  1380
249  1340
248  1210
247  1290
246  1365
245  1545
244  1375
243  1425
242  1390
241  1305
240  1170
239  1370
238  1245
237  1380
236  1380
235  1530
234  1490
233  1270
232  1385
231  1355
230  1440
229  1265
228  1305
227  1345
226  1405
225  1325
224  1380
223  1375
222  1295
221  1330
220  1290
219  1385
218  1300
217  1470
216  1240
215  1420
214  1260
213  1220
212  1185
211  1310
210  1345
209  1450
208  1385
207  1360
206  1110
205  1255
204  1320
203  1280
202  1395
201  1420
200  1520
199  1400
198  1505
197  1355
196  1430
195  1430
194  1420
193  1455
192  1395
191  1265
190  1415
189  1420
188  1420
187  1365
186  1455
185  1480
184  1240
183  1460
182  1310
181  1395
180  1345
179  1460
178  1470
177  1450
176  1420
175  1600
174  1380
173  1435
172  1430
171  1465
170  1510
169  1490
168  1325
167  1390
166  1305
165  1665
164  1290
163  1395
162  1385
161  1320
160  1485
159  1500
158  1385
157  1455
156  1260
155  1395
154  1305
153  1430
152  1290
151  1395
150  1390
149  1380
148  1265
147  1485
146  1490
145  1380
144  1510
143  1570
142  1535
141  1465
140  1495
139  1410
138  1435
137  1495
136  1555
135  1490
134  1470
133  1420
132  1670
131  1560
130  1395
129  1490
128  1605
127  1710
126  1580
125  1680
124  1960
123  1685
122  1655
121  1555
120  1585
119  1610
118  1350
117  1550
116  1495
115  1350
114  1475
113  1375
112  1490
111  1350
110  1375
109  1420
108  1435
107  1375
106  1545
105  1595
104  1515
103  1450
102  1530
101  1530
100  1490
99  1625
98  1505
97  1525
96  1590
95  1525
94  1780
93  1590
92  1620
91  1555
90  1555
89  1755
88  1800
87  1905
86  1695
85  1695
84  1890
83  1940
82  1815
81  1690
80  1655
79  1855
78  1665
77  1765
76  1625
75  1490
74  1560
73  1515
72  1530
71  1285
70  1255
69  1270
68  1280
67  1265
66  1190
65  1200
64  1165
63  1110
62  1065
61  1085
60  945
59  1115
58  1095
57  1010
56  1015
55  1045
54  1150
53  1000
52  1060
51  1140
50  935
49  1000
48  1065
47  980
46  1140
45  1045
44  1040
43  1045
42  1170
41  1115
40  1145
39  1100
38  1120
37  1230
36  1265
35  1030
34  1095
33  1240
32  1205
31  1060
30  1140
29  1035
28  1135
27  1295
26  1340
25  1265
24  1180
23  1230
22  1270
21  1585
20  2975
19  4345
18  4065
17  2215
16  1245
15  965
14  815
13  765
12  825
11  890
10  990
9  1055
8  1160
7  915
6  810
5  855
4  885
3  640
2  640
1  665
-2.2737368e-013  635
-1  665
-2  685
-3  575
-4  665

# Region:            C1s
# Acquisition Date:  08/22/22 14:26:39 UTC
# Analysis Method:   XPS
# Analyzer:          Phoibos 100 R6
# Analyzer Lens:     LargeArea:1.5kV
# Analyzer Slit:     1:0.2x20\B:open
# Scan Mode:         FixedAnalyzerTransmission
# Curves/Scan:       1
# Values/Curve:      151
# Dwell Time:        0.8
# Excitation Energy: 1486.61
# Binding Energy:    295
# Pass Energy:       30
# Bias Voltage:      90
# Detector Voltage:  2600
# Eff. Workfunction: 4.309
# Source:            X-Ray Dummy
# Comment:           
#
# Cycle: 0
# Number of Scans: 2
#
# Cycle: 0, Curve: 0
# Acquisition Date: 08/22/22 14:26:39 UTC
#
# ColumnLabels: energy counts/s
#
295  917.5
294.9  988.125
294.8  938.125
294.7  942.5
294.6  910.625
294.5  913.125
294.4  920
294.3  929.375
294.2  954.375
294.1  965
294  966.25
293.9  881.875
293.8  936.875
293.7  904.375
293.6  929.375
293.5  903.75
293.4  949.375
293.3  940.625
293.2  987.5
293.1  915.625
293  965
292.9  955.625
292.8  933.75
292.7  947.5
292.6  936.25
292.5  971.25
292.4  921.25
292.3  976.25
292.2  951.875
292.1  971.875
292  965
291.9  957.5
291.8  970.625
291.7  961.25
291.6  958.75
291.5  950.625
291.4  940.625
291.3  938.75
291.2  973.75
291.1  941.25
291  917.5
290.9  958.75
290.8  928.75
290.7  962.5
290.6  972.5
290.5  950.625
290.4  935
290.3  901.875
290.2  922.5
290.1  958.75
290  925
289.9  965.625
289.8  937.5
289.7  953.75
289.6  946.25
289.5  951.875
289.4  946.875
289.3  921.875
289.2  960.625
289.1  901.875
289  963.75
288.9  861.25
288.8  927.5
288.7  987.5
288.6  939.375
288.5  935
288.4  966.875
288.3  941.25
288.2  908.125
288.1  932.5
288  978.125
287.9  912.5
287.8  947.5
287.7  912.5
287.6  946.875
287.5  950.625
287.4  904.375
287.3  930.625
287.2  956.25
287.1  941.875
287  963.75
286.9  948.125
286.8  986.875
286.7  906.875
286.6  917.5
286.5  954.375
286.4  918.75
286.3  896.875
286.2  945
286.1  936.875
286  921.875
285.9  948.125
285.8  946.875
285.7  929.375
285.6  945.625
285.5  967.5
285.4  942.5
285.3  922.5
285.2  956.25
285.1  931.875
285  970
284.9  911.875
284.8  931.25
284.7  931.875
284.6  913.75
284.5  921.875
284.4  917.5
284.3  921.25
284.2  933.75
284.1  975.625
284  968.75
283.9  874.375
283.8  928.75
283.7  941.875
283.6  941.875
283.5  964.375
283.4  945.625
283.3  977.5
283.2  1000.625
283.1  915
283  959.375
282.9  946.25
282.8  995
282.7  908.125
282.6  970
282.5  971.25
282.4  929.375
282.3  952.5
282.2  911.25
282.1  986.25
282  987.5
281.9  965
281.8  951.875
281.7  942.5
281.6  939.375
281.5  917.5
281.4  955
281.3  961.25
281.2  939.375
281.1  946.875
281  916.25
280.9  947.5
280.8  937.5
280.7  928.75
280.6  936.25
280.5  911.875
280.4  951.25
280.3  951.875
280.2  945
280.1  928.75
280  948.75

# Region:            Ba3d
# Acquisition Date:  08/22/22 14:28:18 UTC
# Analysis Method:   XPS
# Analyzer:          Phoibos 100 R6
# Analyzer Lens:     LargeArea:1.5kV
# Analyzer Slit:     1:0.2x20\B:open
# Scan Mode:         FixedAnalyzerTransmission
# Curves/Scan:       1
# Values/Curve:      121
# Dwell Time:        0.8
# Excitation Energy: 1486.61
# Binding Energy:    789
# Pass Energy:       30
# Bias Voltage:      90
# Detector Voltage:  2600
# Eff. Workfunction: 4.309
# Source:            X-Ray Dummy
# Comment:           
#
# Cycle: 0
# Number of Scans: 2
#
# Cycle: 0, Curve: 0
# Acquisition Date: 08/22/22 14:28:18 UTC
#
# ColumnLabels: energy counts/s
#
789  5071.875
788.9  5189.375
788.8  5093.75
788.7  5120.625
788.6  5176.875
788.5  5191.875
788.4  5139.375
788.3  5047.5
788.2  5083.125
788.1  5145
788  5143.75
787.9  5167.5
787.8  5168.125
787.7  5131.875
787.6  5042.5
787.5  5101.875
787.4  5043.75
787.3  5183.125
787.2  5113.125
787.1  5070.625
787  5132.5
786.9  5102.5
786.8  5236.875
786.7  5018.75
786.6  5125
786.5  5074.375
786.4  5144.375
786.3  5161.875
786.2  5186.25
786.1  5176.875
786  5231.25
785.9  5115
785.8  5111.25
785.7  5151.25
785.6  5140
785.5  5196.875
785.4  5106.875
785.3  5143.75
785.2  5095
785.1  5160.625
785  5083.125
784.9  5165
784.8  5250
784.7  5184.375
784.6  5125
784.5  5204.375
784.4  5047.5
784.3  5147.5
784.2  5167.5
784.1  5076.25
784  5195
783.9  5153.75
783.8  5069.375
783.7  5153.125
783.6  5079.375
783.5  5165.625
783.4  5231.875
783.3  5206.875
783.2  5173.125
783.1  5215.625
783  5148.125
782.9  5146.25
782.8  5141.25
782.7  5116.875
782.6  5210
782.5  5118.75
782.4  5245
782.3  5078.125
782.2  5181.25
782.1  5163.125
782  5075.625
781.9  5181.875
781.8  5111.25
781.7  5209.375
781.6  5098.75
781.5  5147.5
781.4  5211.25
781.3  5094.375
781.2  5223.75
781.1  5133.75
781  5139.375
780.9  5073.125
780.8  5188.125
780.7  5132.5
780.6  5165
780.5  5113.125
780.4  5069.375
780.3  5240.625
780.2  5250.625
780.1  5125
780  5138.125
779.9  5225.625
779.8  5218.125
779.7  5113.75
779.6  5225.625
779.5  5116.25
779.4  5075
779.3  5233.125
779.2  5297.5
779.1  5073.125
779  5063.75
778.9  5229.375
778.8  5145.625
778.7  5108.125
778.6  5159.375
778.5  5226.875
778.4  5181.875
778.3  5161.25
778.2  5150
778.1  5199.375
778  5126.875
777.9  5177.5
777.8  5250.625
777.7  5162.5
777.6  5204.375
777.5  5140
777.4  5131.875
777.3  5230.625
777.2  5168.125
777.1  5197.5
777  5181.875

# Region:            Cl2p
# Acquisition Date:  08/22/22 14:29:48 UTC
# Analysis Method:   XPS
# Analyzer:          Phoibos 100 R6
# Analyzer Lens:     LargeArea:1.5kV
# Analyzer Slit:     1:0.2x20\B:open
# Scan Mode:         FixedAnalyzerTransmission
# Curves/Scan:       1
# Values/Curve:      111
# Dwell Time:        0.8
# Excitation Energy: 1486.61
# Binding Energy:    207
# Pass Energy:       30
# Bias Voltage:      90
# Detector Voltage:  2600
# Eff. Workfunction: 4.309
# Source:            X-Ray Dummy
# Comment:           
#
# Cycle: 0
# Number of Scans: 2
#
# Cycle: 0, Curve: 0
# Acquisition Date: 08/22/22 14:29:48 UTC
#
# ColumnLabels: energy counts/s
#
207  923.125
206.9  910
206.8  938.75
206.7  986.875
206.6  911.25
206.5  965
206.4  960.625
206.3  905.625
206.2  906.875
206.1  954.375
206  951.875
205.9  932.5
205.8  881.875
205.7  930.625
205.6  945.625
205.5  971.875
205.4  892.5
205.3  984.375
205.2  903.75
205.1  885
205  943.125
204.9  961.875
204.8  973.125
204.7  928.75
204.6  928.75
204.5  945.625
204.4  898.75
204.3  948.125
204.2  997.5
204.1  971.875
204  913.125
203.9  891.875
203.8  960.625
203.7  963.75
203.6  931.875
203.5  952.5
203.4  886.25
203.3  946.875
203.2  965.625
203.1  941.25
203  960.625
202.9  922.5
202.8  889.375
202.7  935
202.6  936.25
202.5  916.25
202.4  962.5
202.3  922.5
202.2  904.375
202.1  917.5
202  920
201.9  939.375
201.8  963.75
201.7  914.375
201.6  952.5
201.5  896.875
201.4  959.375
201.3  961.25
201.2  928.75
201.1  955
201  980
200.9  943.75
200.8  948.75
200.7  940.625
200.6  956.875
200.5  947.5
200.4  928.125
200.3  965.625
200.2  922.5
200.1  925.625
200  928.75
199.9  958.75
199.8  917.5
199.7  971.875
199.6  947.5
199.5  929.375
199.4  948.75
199.3  950.625
199.2  945.625
199.1  952.5
199  954.375
198.9  987.5
198.8  900
198.7  935
198.6  948.125
198.5  969.375
198.4  970.625
198.3  956.875
198.2  964.375
198.1  978.125
198  941.875
197.9  933.125
197.8  906.875
197.7  985.625
197.6  911.875
197.5  961.25
197.4  943.125
197.3  981.25
197.2  935.625
197.1  948.125
197  920.625
196.9  966.875
196.8  957.5
196.7  940
196.6  976.25
196.5  946.25
196.4  951.25
196.3  947.5
196.2  946.25
196.1  951.25
196  937.5

# Region:            N1s
# Acquisition Date:  08/22/22 14:31:11 UTC
# Analysis Method:   XPS
# Analyzer:          Phoibos 100 R6
# Analyzer Lens:     LargeArea:1.5kV
# Analyzer Slit:     1:0.2x20\B:open
# Scan Mode:         FixedAnalyzerTransmission
# Curves/Scan:       1
# Values/Curve:      101
# Dwell Time:        0.8
# Excitation Energy: 1486.61
# Binding Energy:    405
# Pass Energy:       30
# Bias Voltage:      90
# Detector Voltage:  2600
# Eff. Workfunction: 4.309
# Source:            X-Ray Dummy
# Comment:           
#
# Cycle: 0
# Number of Scans: 2
#
# Cycle: 0, Curve: 0
# Acquisition Date: 08/22/22 14:31:11 UTC
#
# ColumnLabels: energy counts/s
#
405  1073.125
404.9  1048.125
404.8  1023.125
404.7  1076.875
404.6  1085.625
404.5  1067.5
404.4  1038.125
404.3  1071.875
404.2  1047.5
404.1  1050
404  1104.375
403.9  1078.75
403.8  1066.875
403.7  1074.375
403.6  1046.875
403.5  1062.5
403.4  1040
403.3  1048.75
403.2  1091.875
403.1  1079.375
403  1100
402.9  1043.125
402.8  1013.125
402.7  1076.875
402.6  1063.125
402.5  1022.5
402.4  1042.5
402.3  1042.5
402.2  1072.5
402.1  1096.25
402  1101.875
401.9  1050.625
401.8  1065.625
401.7  1100.625
401.6  1086.875
401.5  1094.375
401.4  1051.875
401.3  1050.625
401.2  1081.25
401.1  1104.375
401  1035.625
400.9  1078.125
400.8  1099.375
400.7  1054.375
400.6  1050.625
400.5  1022.5
400.4  1040.625
400.3  1021.875
400.2  1087.5
400.1  1103.125
400  1096.25
399.9  1065.625
399.8  1086.25
399.7  1081.875
399.6  1094.375
399.5  1053.75
399.4  1043.75
399.3  1096.875
399.2  1045
399.1  1071.25
399  1051.875
398.9  1135
398.8  1059.375
398.7  1095.625
398.6  1083.125
398.5  1113.125
398.4  1028.125
398.3  1105
398.2  1084.375
398.1  1096.25
398  1048.125
397.9  1075
397.8  1035.625
397.7  1018.125
397.6  1095
397.5  1015.625
397.4  1056.25
397.3  1050
397.2  1050
397.1  1026.875
397  1097.5
396.9  1044.375
396.8  1037.5
396.7  1051.25
396.6  1012.5
396.5  1123.125
396.4  1098.75
396.3  1026.875
396.2  1044.375
396.1  1333.125
396  1086.25
395.9  1080
395.8  1050
395.7  1061.25
395.6  1071.25
395.5  1046.25
395.4  1066.25
395.3  1023.125
395.2  1060.625
395.1  1022.5
395  1076.25

# Region:            Sn3d
# Acquisition Date:  08/22/22 14:34:18 UTC
# Analysis Method:   XPS
# Analyzer:          Phoibos 100 R6
# Analyzer Lens:     LargeArea:1.5kV
# Analyzer Slit:     1:0.2x20\B:open
# Scan Mode:         FixedAnalyzerTransmission
# Curves/Scan:       1
# Values/Curve:      231
# Dwell Time:        0.8
# Excitation Energy: 1486.61
# Binding Energy:    503
# Pass Energy:       30
# Bias Voltage:      90
# Detector Voltage:  2600
# Eff. Workfunction: 4.309
# Source:            X-Ray Dummy
# Comment:           
#
# Cycle: 0
# Number of Scans: 2
#
# Cycle: 0, Curve: 0
# Acquisition Date: 08/22/22 14:34:18 UTC
#
# ColumnLabels: energy counts/s
#
503  3545
502.9  3363.125
502.8  3532.5
502.7  3547.5
502.6  3478.125
502.5  3448.125
502.4  3501.25
502.3  3465.625
502.2  3521.25
502.1  3398.75
502  3475.625
501.9  3495.625
501.8  3509.375
501.7  3420.625
501.6  3572.5
501.5  3535
501.4  3518.75
501.3  3488.125
501.2  3509.375
501.1  3507.5
501  3526.25
500.9  3385.625
500.8  3498.75
500.7  3489.375
500.6  3421.25
500.5  3484.375
500.4  3478.125
500.3  3478.125
500.2  3516.25
500.1  3518.75
500  3514.375
499.9  3538.75
499.8  3462.5
499.7  3469.375
499.6  3478.125
499.5  3537.5
499.4  3569.375
499.3  3448.125
499.2  3495
499.1  3543.75
499  3523.75
498.9  3510
498.8  3590
498.7  3446.875
498.6  3447.5
498.5  3611.25
498.4  3493.75
498.3  3501.875
498.2  3577.5
498.1  3563.125
498  3615.625
497.9  3743.125
497.8  3578.125
497.7  3561.875
497.6  3674.375
497.5  3695.625
497.4  3759.375
497.3  3665
497.2  3742.5
497.1  3822.5
497  3805
496.9  3853.125
496.8  3838.75
496.7  3921.875
496.6  3974.375
496.5  3913.75
496.4  4011.25
496.3  4046.875
496.2  4025
496.1  4139.375
496  4093.125
495.9  4102.5
495.8  4158.75
495.7  4115
495.6  4144.375
495.5  4112.5
495.4  4125
495.3  4077.5
495.2  3996.875
495.1  4132.5
495  3985
494.9  3903.125
494.8  3878.125
494.7  3829.375
494.6  3826.875
494.5  3818.75
494.4  3680
494.3  3708.125
494.2  3641.25
494.1  3513.125
494  3536.875
493.9  3604.375
493.8  3425
493.7  3485
493.6  3496.25
493.5  3465.625
493.4  3447.5
493.3  3410
493.2  3420
493.1  3492.5
493  3268.75
492.9  3390
492.8  3325.625
492.7  3366.25
492.6  3340.625
492.5  3373.75
492.4  3361.25
492.3  3380.625
492.2  3349.375
492.1  3370.625
492  3351.875
491.9  3345
491.8  3405.625
491.7  3378.75
491.6  3368.75
491.5  3383.75
491.4  3400
491.3  3408.125
491.2  3411.875
491.1  3351.25
491  3379.375
490.9  3353.125
490.8  3348.75
490.7  3403.125
490.6  3387.5
490.5  3412.5
490.4  3400.625
490.3  3458.125
490.2  3526.875
490.1  3458.125
490  3381.25
489.9  3501.25
489.8  3606.25
489.7  3582.5
489.6  3501.875
489.5  3499.375
489.4  3578.75
489.3  3602.5
489.2  3661.875
489.1  3744.375
489  3690.625
488.9  3661.875
488.8  3777.5
488.7  3842.5
488.6  3898.75
488.5  4007.5
488.4  4028.75
488.3  3982.5
488.2  4041.875
488.1  4094.375
488  4126.25
487.9  4140
487.8  4226.875
487.7  4310.625
487.6  4358.125
487.5  4313.125
487.4  4308.125
487.3  4405.625
487.2  4351.25
487.1  4340.625
487  4335.625
486.9  4326.25
486.8  4293.125
486.7  4451.875
486.6  4276.875
486.5  4093.75
486.4  4120
486.3  3923.125
486.2  3987.5
486.1  3973.75
486  3865.625
485.9  3770.625
485.8  3785.625
485.7  3731.875
485.6  3651.25
485.5  3583.125
485.4  3604.375
485.3  3502.5
485.2  3480
485.1  3442.5
485  3408.125
484.9  3484.375
484.8  3376.25
484.7  3479.375
484.6  3462.5
484.5  3404.375
484.4  3402.5
484.3  3320.625
484.2  3364.375
484.1  3425.625
484  3311.25
483.9  3403.125
483.8  3327.5
483.7  3366.25
483.6  3352.5
483.5  3325
483.4  3421.875
483.3  3376.875
483.2  3355.625
483.1  3404.375
483  3310
482.9  3364.375
482.8  3357.5
482.7  3361.875
482.6  3313.125
482.5  3358.125
482.4  3385
482.3  3413.125
482.2  3279.375
482.1  3287.5
482  3416.875
481.9  3350
481.8  3338.125
481.7  3275.625
481.6  3416.25
481.5  3367.5
481.4  3311.25
481.3  3393.75
481.2  3303.75
481.1  3310
481  3261.25
480.9  3326.25
480.8  3313.125
480.7  3378.75
480.6  3347.5
480.5  3455.625
480.4  3398.75
480.3  3268.125
480.2  3263.75
480.1  3395
480  3761.25

# Region:            In3d
# Acquisition Date:  08/22/22 14:08:03 UTC
# Analysis Method:   XPS
# Analyzer:          Phoibos 100 R6
# Analyzer Lens:     LargeArea:1.5kV
# Analyzer Slit:     1:0.2x20\B:open
# Scan Mode:         FixedAnalyzerTransmission
# Curves/Scan:       1
# Values/Curve:      231
# Dwell Time:        0.8
# Excitation Energy: 1486.61
# Binding Energy:    460
# Pass Energy:       30
# Bias Voltage:      90
# Detector Voltage:  2600
# Eff. Workfunction: 4.309
# Source:            X-Ray Dummy
# Comment:           
#
# Cycle: 0
# Number of Scans: 1
#
# Cycle: 0, Curve: 0
# Acquisition Date: 08/22/22 14:08:03 UTC
#
# ColumnLabels: energy counts/s
#
460  3522.5
459.9  3553.75
459.8  3428.75
459.7  3361.25
459.6  3493.75
459.5  3510
459.4  3468.75
459.3  3405
459.2  3466.25
459.1  3356.25
459  3490
458.9  3301.25
458.8  3508.75
458.7  3387.5
458.6  3382.5
458.5  3375
458.4  3455
458.3  3436.25
458.2  3375
458.1  3230
458  3457.5
457.9  3256.25
457.8  3352.5
457.7  3352.5
457.6  3346.25
457.5  3448.75
457.4  3468.75
457.3  3507.5
457.2  3271.25
457.1  3422.5
457  3430
456.9  3490
456.8  3532.5
456.7  3576.25
456.6  3618.75
456.5  3558.75
456.4  3650
456.3  3811.25
456.2  3663.75
456.1  3800
456  3900
455.9  3943.75
455.8  3996.25
455.7  4113.75
455.6  4216.25
455.5  4447.5
455.4  4400
455.3  4578.75
455.2  4676.25
455.1  5062.5
455  5042.5
454.9  5490
454.8  5693.75
454.7  5871.25
454.6  6215
454.5  6715
454.4  6976.25
454.3  7461.25
454.2  7953.75
454.1  8498.75
454  9215
453.9  9575
453.8  10167.5
453.7  10670
453.6  11290
453.5  11810
453.4  12235
453.3  13151.25
453.2  13593.75
453.1  13975
453  14316.25
452.9  14345
452.8  14685
452.7  14717.5
452.6  14246.25
452.5  14030
452.4  13571.25
452.3  13216.25
452.2  12321.25
452.1  11637.5
452  10676.25
451.9  10076.25
451.8  9066.25
451.7  8455
451.6  7465
451.5  6847.5
451.4  6155
451.3  5512.5
451.2  5103.75
451.1  4505
451  4376.25
450.9  3998.75
450.8  3727.5
450.7  3551.25
450.6  3495
450.5  3383.75
450.4  3225
450.3  3260
450.2  3051.25
450.1  3066.25
450  2967.5
449.9  2890
449.8  2942.5
449.7  3018.75
449.6  2873.75
449.5  3097.5
449.4  2880
449.3  2938.75
449.2  2943.75
449.1  3017.5
449  2961.25
448.9  3047.5
448.8  3032.5
448.7  3171.25
448.6  3218.75
448.5  3348.75
448.4  3481.25
448.3  3545
448.2  3675
448.1  3800
448  4098.75
447.9  4148.75
447.8  4516.25
447.7  4662.5
447.6  4923.75
447.5  5243.75
447.4  5772.5
447.3  5896.25
447.2  6448.75
447.1  6772.5
447  7356.25
446.9  7821.25
446.8  8431.25
446.7  9037.5
446.6  10002.5
446.5  10481.25
446.4  11281.25
446.3  11960
446.2  12912.5
446.1  13910
446  14640
445.9  15626.25
445.8  16440
445.7  16871.25
445.6  17857.5
445.5  18511.25
445.4  18885
445.3  19182.5
445.2  18875
445.1  19090
445  18616.25
444.9  18106.25
444.8  17121.25
444.7  16566.25
444.6  15530
444.5  14161.25
444.4  13406.25
444.3  11933.75
444.2  10976.25
444.1  9888.75
444  8840
443.9  7798.75
443.8  6891.25
443.7  6281.25
443.6  5727.5
443.5  5221.25
443.4  4898.75
443.3  4400
443.2  4097.5
443.1  4037.5
443  3813.75
442.9  3526.25
442.8  3487.5
442.7  3310
442.6  3163.75
442.5  2981.25
442.4  3085
442.3  2936.25
442.2  2793.75
442.1  2785
442  2703.75
441.9  2572.5
441.8  2518.75
441.7  2537.5
441.6  2463.75
441.5  2303.75
441.4  2298.75
441.3  2260
441.2  2210
441.1  2197.5
441  2173.75
440.9  2147.5
440.8  2147.5
440.7  2061.25
440.6  2031.25
440.5  2048.75
440.4  2036.25
440.3  1980
440.2  1828.75
440.1  1870
440  1867.5
439.9  1873.75
439.8  1821.25
439.7  1822.5
439.6  1861.25
439.5  1746.25
439.4  1726.25
439.3  1731.25
439.2  1682.5
439.1  1622.5
439  1618.75
438.9  1520
438.8  1585
438.7  1521.25
438.6  1546.25
438.5  1601.25
438.4  1611.25
438.3  1508.75
438.2  1631.25
438.1  1620
438  1590
437.9  1520
437.8  1596.25
437.7  1582.5
437.6  1557.5
437.5  1737.5
437.4  1666.25
437.3  1738.75
437.2  1817.5
437.1  1820
437  2950

# Region:            O1s
# Acquisition Date:  08/22/22 14:45:32 UTC
# Analysis Method:   XPS
# Analyzer:          Phoibos 100 R6
# Analyzer Lens:     LargeArea:1.5kV
# Analyzer Slit:     1:0.2x20\B:open
# Scan Mode:         FixedAnalyzerTransmission
# Curves/Scan:       1
# Values/Curve:      111
# Dwell Time:        0.8
# Excitation Energy: 1486.61
# Binding Energy:    538
# Pass Energy:       30
# Bias Voltage:      90
# Detector Voltage:  2600
# Eff. Workfunction: 4.309
# Source:            X-Ray Dummy
# Comment:           
#
# Cycle: 0
# Number of Scans: 6
#
# Cycle: 0, Curve: 0
# Acquisition Date: 08/22/22 14:45:32 UTC
#
# ColumnLabels: energy counts/s
#
538  3698.9583
537.9  3696.4583
537.8  3741.0417
537.7  3671.875
537.6  3703.5417
537.5  3707.0833
537.4  3688.75
537.3  3700
537.2  3714.375
537.1  3689.7917
537  3718.75
536.9  3662.9167
536.8  3648.3333
536.7  3695
536.6  3675.8333
536.5  3638.125
536.4  3752.9167
536.3  3681.0417
536.2  3707.2917
536.1  3716.875
536  3683.9583
535.9  3708.5417
535.8  3742.7083
535.7  3694.375
535.6  3683.3333
535.5  3683.5417
535.4  3748.9583
535.3  3685
535.2  3710.4167
535.1  3679.1667
535  3717.5
534.9  3707.5
534.8  3765.8333
534.7  3746.6667
534.6  3803.75
534.5  3802.7083
534.4  3777.7083
534.3  3827.7083
534.2  3858.5417
534.1  3824.1667
534  3859.7917
533.9  3898.5417
533.8  3953.75
533.7  3962.2917
533.6  4035
533.5  4001.4583
533.4  4141.0417
533.3  4176.6667
533.2  4265.8333
533.1  4318.5417
533  4332.5
532.9  4448.9583
532.8  4560.8333
532.7  4610.4167
532.6  4756.4583
532.5  4880
532.4  5006.875
532.3  5182.7083
532.2  5378.5417
532.1  5482.0833
532  5669.7917
531.9  5865.625
531.8  6119.1667
531.7  6279.7917
531.6  6459.375
531.5  6714.1667
531.4  6874.7917
531.3  7120.625
531.2  7362.9167
531.1  7486.4583
531  7591.0417
530.9  7672.5
530.8  7685
530.7  7718.125
530.6  7589.375
530.5  7512.0833
530.4  7295
530.3  7160.4167
530.2  6816.6667
530.1  6600
530  6259.375
529.9  5955.2083
529.8  5680.2083
529.7  5482.7083
529.6  5165.4167
529.5  4910.2083
529.4  4709.375
529.3  4533.3333
529.2  4336.6667
529.1  4131.875
529  4039.5833
528.9  4000.4167
528.8  3864.5833
528.7  3827.0833
528.6  3760.8333
528.5  3748.3333
528.4  3748.125
528.3  3698.9583
528.2  3682.0833
528.1  3656.25
528  3599.5833
527.9  3628.75
527.8  3608.125
527.7  3580
527.6  3645
527.5  3526.875
527.4  3594.7917
527.3  3526.6667
527.2  3540
527.1  3569.5833
527  3562.2917

# Region:            Si2p
# Acquisition Date:  08/22/22 14:36:47 UTC
# Analysis Method:   XPS
# Analyzer:          Phoibos 100 R6
# Analyzer Lens:     LargeArea:1.5kV
# Analyzer Slit:     1:0.2x20\B:open
# Scan Mode:         FixedAnalyzerTransmission
# Curves/Scan:       1
# Values/Curve:      71
# Dwell Time:        0.8
# Excitation Energy: 1486.61
# Binding Energy:    107
# Pass Energy:       30
# Bias Voltage:      90
# Detector Voltage:  2600
# Eff. Workfunction: 4.309
# Source:            X-Ray Dummy
# Comment:           
#
# Cycle: 0
# Number of Scans: 2
#
# Cycle: 0, Curve: 0
# Acquisition Date: 08/22/22 14:36:47 UTC
#
# ColumnLabels: energy counts/s
#
107  960.625
106.9  950.625
106.8  928.125
106.7  945
106.6  1001.25
106.5  997.5
106.4  966.25
106.3  956.875
106.2  989.375
106.1  953.75
106  943.125
105.9  990
105.8  955
105.7  985
105.6  966.875
105.5  960.625
105.4  929.375
105.3  958.75
105.2  954.375
105.1  954.375
105  951.875
104.9  968.75
104.8  1005
104.7  987.5
104.6  978.125
104.5  964.375
104.4  1006.25
104.3  1005
104.2  972.5
104.1  1037.5
104  973.125
103.9  1002.5
103.8  948.75
103.7  954.375
103.6  991.25
103.5  955.625
103.4  991.25
103.3  1021.25
103.2  1005.625
103.1  991.875
103  986.25
102.9  1035
102.8  987.5
102.7  965
102.6  966.25
102.5  980
102.4  1015.625
102.3  981.25
102.2  1015.625
102.1  1000
102  970.625
101.9  1000
101.8  1006.875
101.7  994.375
101.6  993.75
101.5  1005.625
101.4  981.25
101.3  1031.875
101.2  1021.25
101.1  984.375
101  959.375
100.9  943.125
100.8  1008.75
100.7  935
100.6  961.875
100.5  959.375
100.4  980
100.3  1013.125
100.2  941.875
100.1  998.125
100  1001.25

# Region:            Na1s
# Acquisition Date:  08/22/22 14:39:30 UTC
# Analysis Method:   XPS
# Analyzer:          Phoibos 100 R6
# Analyzer Lens:     LargeArea:1.5kV
# Analyzer Slit:     1:0.2x20\B:open
# Scan Mode:         FixedAnalyzerTransmission
# Curves/Scan:       1
# Values/Curve:      201
# Dwell Time:        0.8
# Excitation Energy: 1486.61
# Binding Energy:    1085
# Pass Energy:       30
# Bias Voltage:      90
# Detector Voltage:  2600
# Eff. Workfunction: 4.309
# Source:            X-Ray Dummy
# Comment:           
#
# Cycle: 0
# Number of Scans: 2
#
# Cycle: 0, Curve: 0
# Acquisition Date: 08/22/22 14:39:30 UTC
#
# ColumnLabels: energy counts/s
#
1085  14183.125
1084.9  14125
1084.8  13967.5
1084.7  13946.875
1084.6  13873.75
1084.5  13715.625
1084.4  13362.5
1084.3  13361.875
1084.2  13175
1084.1  13211.875
1084  12935
1083.9  12964.375
1083.8  12794.375
1083.7  12510.625
1083.6  12539.375
1083.5  12553.75
1083.4  12275.625
1083.3  12243.125
1083.2  12175.625
1083.1  12008.75
1083  12028.75
1082.9  11916.875
1082.8  11794.375
1082.7  11679.375
1082.6  11571.875
1082.5  11520.625
1082.4  11645.625
1082.3  11441.875
1082.2  11412.5
1082.1  11600.625
1082  11315
1081.9  11531.25
1081.8  11389.375
1081.7  11401.875
1081.6  11481.25
1081.5  11488.125
1081.4  11516.25
1081.3  11629.375
1081.2  11695
1081.1  11843.125
1081  11940.625
1080.9  11702.5
1080.8  11741.25
1080.7  12021.25
1080.6  11870.625
1080.5  11865
1080.4  11780.625
1080.3  11983.125
1080.2  11904.375
1080.1  12036.875
1080  12096.25
1079.9  11950.625
1079.8  12090.625
1079.7  11858.75
1079.6  11735.625
1079.5  11771.25
1079.4  11741.25
1079.3  11528.125
1079.2  11877.5
1079.1  11584.375
1079  11668.125
1078.9  11351.875
1078.8  11345
1078.7  11081.875
1078.6  11122.5
1078.5  11277.5
1078.4  10906.875
1078.3  10721.25
1078.2  10605.625
1078.1  10566.875
1078  10328.75
1077.9  10348.75
1077.8  10169.375
1077.7  9935
1077.6  9856.25
1077.5  9720
1077.4  9674.375
1077.3  9341.25
1077.2  9355.625
1077.1  9316.875
1077  9235
1076.9  9111.25
1076.8  9016.25
1076.7  8890
1076.6  8769.375
1076.5  8800
1076.4  8636.875
1076.3  8595
1076.2  8603.75
1076.1  8408.125
1076  8290
1075.9  8181.25
1075.8  8299.375
1075.7  8271.25
1075.6  8160.625
1075.5  8045
1075.4  7995
1075.3  8022.5
1075.2  7927.5
1075.1  7804.375
1075  7706.875
1074.9  7813.75
1074.8  7697.5
1074.7  7655.625
1074.6  7597.5
1074.5  7650.625
1074.4  7427.5
1074.3  7497.5
1074.2  7580
1074.1  7452.5
1074  7325
1073.9  7466.25
1073.8  7425.625
1073.7  7443.125
1073.6  7362.5
1073.5  7368.125
1073.4  7418.75
1073.3  7394.375
1073.2  7293.125
1073.1  7315.625
1073  7323.125
1072.9  7318.75
1072.8  7281.25
1072.7  7305
1072.6  7148.125
1072.5  7290.625
1072.4  7249.375
1072.3  7322.5
1072.2  7340.625
1072.1  7269.375
1072  7338.125
1071.9  7339.375
1071.8  7248.75
1071.7  7285.625
1071.6  7341.875
1071.5  7364.375
1071.4  7407.5
1071.3  7206.25
1071.2  7318.125
1071.1  7338.75
1071  7370.625
1070.9  7425
1070.8  7401.25
1070.7  7255.625
1070.6  7285
1070.5  7352.5
1070.4  7298.75
1070.3  7348.125
1070.2  7376.875
1070.1  7429.375
1070  7324.375
1069.9  7407.5
1069.8  7391.25
1069.7  7426.875
1069.6  7393.75
1069.5  7403.75
1069.4  7233.75
1069.3  7362.5
1069.2  7325.625
1069.1  7292.5
1069  7430
1068.9  7325
1068.8  7392.5
1068.7  7443.125
1068.6  7363.75
1068.5  7465.625
1068.4  7197.5
1068.3  7488.75
1068.2  7423.125
1068.1  7265.625
1068  7545
1067.9  7420.625
1067.8  7363.125
1067.7  7455.625
1067.6  7393.125
1067.5  7390.625
1067.4  7352.5
1067.3  7374.375
1067.2  7387.5
1067.1  7483.75
1067  7365.625
1066.9  7322.5
1066.8  7389.375
1066.7  7424.375
1066.6  7365.625
1066.5  7361.25
1066.4  7473.75
1066.3  7371.875
1066.2  7356.25
1066.1  7446.25
1066  7364.375
1065.9  7457.5
1065.8  7368.75
1065.7  7290
1065.6  7405.625
1065.5  7210.625
1065.4  7378.125
1065.3  7438.75
1065.2  7286.875
1065.1  7291.25
1065  7378.125

# Region:            Zn2p
# Acquisition Date:  08/22/22 14:24:35 UTC
# Analysis Method:   XPS
# Analyzer:          Phoibos 100 R6
# Analyzer Lens:     LargeArea:1.5kV
# Analyzer Slit:     1:0.2x20\B:open
# Scan Mode:         FixedAnalyzerTransmission
# Curves/Scan:       1
# Values/Curve:      841
# Dwell Time:        0.8
# Excitation Energy: 1486.61
# Binding Energy:    1050
# Pass Energy:       30
# Bias Voltage:      90
# Detector Voltage:  2600
# Eff. Workfunction: 4.309
# Source:            X-Ray Dummy
# Comment:           
#
# Cycle: 0
# Number of Scans: 1
#
# Cycle: 0, Curve: 0
# Acquisition Date: 08/22/22 14:24:35 UTC
#
# ColumnLabels: energy counts/s
#
1050  6261.25
1049.9  6475
1049.8  6463.75
1049.7  6533.75
1049.6  6395
1049.5  6422.5
1049.4  6295
1049.3  6527.5
1049.2  6402.5
1049.1  6307.5
1049  6181.25
1048.9  6280
1048.8  6392.5
1048.7  6355
1048.6  6340
1048.5  6363.75
1048.4  6176.25
1048.3  6376.25
1048.2  6462.5
1048.1  6252.5
1048  6245
1047.9  6297.5
1047.8  6462.5
1047.7  6275
1047.6  6353.75
1047.5  6138.75
1047.4  6401.25
1047.3  6495
1047.2  6261.25
1047.1  6106.25
1047  6342.5
1046.9  6320
1046.8  6175
1046.7  6346.25
1046.6  6223.75
1046.5  6386.25
1046.4  6256.25
1046.3  6262.5
1046.2  6383.75
1046.1  6396.25
1046  6525
1045.9  6307.5
1045.8  6210
1045.7  6237.5
1045.6  6147.5
1045.5  6257.5
1045.4  6215
1045.3  6210
1045.2  6150
1045.1  6378.75
1045  6251.25
1044.9  6383.75
1044.8  6286.25
1044.7  6332.5
1044.6  6292.5
1044.5  6235
1044.4  6346.25
1044.3  6396.25
1044.2  6493.75
1044.1  6307.5
1044  6327.5
1043.9  6347.5
1043.8  6270
1043.7  6266.25
1043.6  6408.75
1043.5  6337.5
1043.4  6240
1043.3  6312.5
1043.2  6398.75
1043.1  6282.5
1043  6356.25
1042.9  6541.25
1042.8  6447.5
1042.7  6387.5
1042.6  6186.25
1042.5  6238.75
1042.4  6361.25
1042.3  6452.5
1042.2  6305
1042.1  6333.75
1042  6213.75
1041.9  6410
1041.8  6382.5
1041.7  6221.25
1041.6  6285
1041.5  6295
1041.4  6247.5
1041.3  6266.25
1041.2  6313.75
1041.1  6231.25
1041  6385
1040.9  6266.25
1040.8  6240
1040.7  6360
1040.6  6332.5
1040.5  6255
1040.4  6118.75
1040.3  6390
1040.2  6157.5
1040.1  6377.5
1040  6232.5
1039.9  6363.75
1039.8  6213.75
1039.7  6372.5
1039.6  6222.5
1039.5  6350
1039.4  6280
1039.3  6243.75
1039.2  6342.5
1039.1  6333.75
1039  6148.75
1038.9  6327.5
1038.8  6276.25
1038.7  6260
1038.6  7113.75
1038.5  6393.75
1038.4  6381.25
1038.3  6303.75
1038.2  6295
1038.1  6346.25
1038  6280
1037.9  6363.75
1037.8  6233.75
1037.7  6263.75
1037.6  6248.75
1037.5  6266.25
1037.4  6236.25
1037.3  6232.5
1037.2  6203.75
1037.1  6330
1037  6378.75
1036.9  6290
1036.8  6315
1036.7  6338.75
1036.6  6155
1036.5  6281.25
1036.4  6248.75
1036.3  6398.75
1036.2  6342.5
1036.1  6331.25
1036  6337.5
1035.9  6260
1035.8  6288.75
1035.7  6345
1035.6  6236.25
1035.5  6296.25
1035.4  6212.5
1035.3  6308.75
1035.2  6293.75
1035.1  6343.75
1035  6391.25
1034.9  6322.5
1034.8  6248.75
1034.7  6307.5
1034.6  6180
1034.5  6350
1034.4  6306.25
1034.3  6371.25
1034.2  6345
1034.1  6372.5
1034  6261.25
1033.9  6381.25
1033.8  6246.25
1033.7  6248.75
1033.6  6257.5
1033.5  6461.25
1033.4  6378.75
1033.3  6322.5
1033.2  6052.5
1033.1  6191.25
1033  6318.75
1032.9  6428.75
1032.8  6362.5
1032.7  6390
1032.6  6211.25
1032.5  6382.5
1032.4  6385
1032.3  6296.25
1032.2  6293.75
1032.1  6347.5
1032  6211.25
1031.9  6322.5
1031.8  6448.75
1031.7  6208.75
1031.6  6181.25
1031.5  6176.25
1031.4  6275
1031.3  6225
1031.2  6300
1031.1  6073.75
1031  6297.5
1030.9  6306.25
1030.8  6311.25
1030.7  6415
1030.6  6313.75
1030.5  6311.25
1030.4  6450
1030.3  6216.25
1030.2  6266.25
1030.1  6357.5
1030  6271.25
1029.9  6267.5
1029.8  6426.25
1029.7  6168.75
1029.6  6255
1029.5  6362.5
1029.4  6318.75
1029.3  6163.75
1029.2  6436.25
1029.1  6095
1029  6428.75
1028.9  6260
1028.8  6360
1028.7  6276.25
1028.6  6441.25
1028.5  6273.75
1028.4  6317.5
1028.3  6225
1028.2  6203.75
1028.1  6316.25
1028  6351.25
1027.9  6443.75
1027.8  6285
1027.7  6298.75
1027.6  6203.75
1027.5  6362.5
1027.4  6263.75
1027.3  6217.5
1027.2  6211.25
1027.1  6295
1027  6356.25
1026.9  6181.25
1026.8  6221.25
1026.7  6278.75
1026.6  6322.5
1026.5  6185
1026.4  6298.75
1026.3  6347.5
1026.2  6296.25
1026.1  6253.75
1026  6243.75
1025.9  6238.75
1025.8  6383.75
1025.7  6361.25
1025.6  6295
1025.5  6358.75
1025.4  6230
1025.3  6342.5
1025.2  6233.75
1025.1  6338.75
1025  6252.5
1024.9  6202.5
1024.8  6238.75
1024.7  6321.25
1024.6  6233.75
1024.5  6272.5
1024.4  6300
1024.3  6237.5
1024.2  6393.75
1024.1  6250
1024  6382.5
1023.9  6287.5
1023.8  6337.5
1023.7  6285
1023.6  6468.75
1023.5  6343.75
1023.4  6166.25
1023.3  6182.5
1023.2  6386.25
1023.1  6297.5
1023  6451.25
1022.9  6398.75
1022.8  6235
1022.7  6260
1022.6  6371.25
1022.5  6265
1022.4  6247.5
1022.3  6390
1022.2  6203.75
1022.1  6257.5
1022  6368.75
1021.9  6170
1021.8  6342.5
1021.7  6055
1021.6  6257.5
1021.5  6120
1021.4  6128.75
1021.3  6393.75
1021.2  6316.25
1021.1  6342.5
1021  6315
1020.9  6396.25
1020.8  6208.75
1020.7  6297.5
1020.6  6241.25
1020.5  6322.5
1020.4  6193.75
1020.3  6203.75
1020.2  6153.75
1020.1  6386.25
1020  6202.5
1019.9  6210
1019.8  6375
1019.7  6295
1019.6  6423.75
1019.5  6256.25
1019.4  6201.25
1019.3  6386.25
1019.2  6283.75
1019.1  6227.5
1019  6170
1018.9  6393.75
1018.8  6247.5
1018.7  6242.5
1018.6  6281.25
1018.5  6197.5
1018.4  6251.25
1018.3  6472.5
1018.2  6221.25
1018.1  6340
1018  6306.25
1017.9  6308.75
1017.8  6191.25
1017.7  6263.75
1017.6  6365
1017.5  6253.75
1017.4  6225
1017.3  6248.75
1017.2  6270
1017.1  6410
1017  6191.25
1016.9  6243.75
1016.8  6307.5
1016.7  6417.5
1016.6  6196.25
1016.5  6285
1016.4  6141.25
1016.3  6210
1016.2  6256.25
1016.1  6305
1016  6332.5
1015.9  6266.25
1015.8  6088.75
1015.7  6181.25
1015.6  6343.75
1015.5  6241.25
1015.4  6492.5
1015.3  6421.25
1015.2  6358.75
1015.1  6418.75
1015  6320
1014.9  6465
1014.8  6466.25
1014.7  6308.75
1014.6  6346.25
1014.5  6462.5
1014.4  6386.25
1014.3  6217.5
1014.2  6310
1014.1  6232.5
1014  6368.75
1013.9  6373.75
1013.8  6480
1013.7  6350
1013.6  6336.25
1013.5  6193.75
1013.4  6292.5
1013.3  6306.25
1013.2  6108.75
1013.1  6367.5
1013  6386.25
1012.9  6257.5
1012.8  6266.25
1012.7  6416.25
1012.6  6457.5
1012.5  6352.5
1012.4  6382.5
1012.3  6200
1012.2  6348.75
1012.1  6438.75
1012  6422.5
1011.9  6358.75
1011.8  6402.5
1011.7  6571.25
1011.6  6462.5
1011.5  6436.25
1011.4  6368.75
1011.3  6346.25
1011.2  6526.25
1011.1  6368.75
1011  6541.25
1010.9  6415
1010.8  6397.5
1010.7  6340
1010.6  6335
1010.5  6326.25
1010.4  6527.5
1010.3  6391.25
1010.2  6433.75
1010.1  6331.25
1010  6383.75
1009.9  6280
1009.8  6523.75
1009.7  6416.25
1009.6  6507.5
1009.5  6470
1009.4  6398.75
1009.3  6263.75
1009.2  6302.5
1009.1  6457.5
1009  6291.25
1008.9  6381.25
1008.8  6360
1008.7  6352.5
1008.6  6395
1008.5  6330
1008.4  6435
1008.3  6395
1008.2  6427.5
1008.1  6465
1008  6367.5
1007.9  6315
1007.8  6368.75
1007.7  6088.75
1007.6  6367.5
1007.5  6326.25
1007.4  6323.75
1007.3  6235
1007.2  6288.75
1007.1  6388.75
1007  6282.5
1006.9  6307.5
1006.8  6216.25
1006.7  6362.5
1006.6  6300
1006.5  6308.75
1006.4  6203.75
1006.3  6283.75
1006.2  6406.25
1006.1  6206.25
1006  6280
1005.9  6407.5
1005.8  6165
1005.7  6378.75
1005.6  6257.5
1005.5  6340
1005.4  6387.5
1005.3  6316.25
1005.2  6341.25
1005.1  6397.5
1005  6205
1004.9  6291.25
1004.8  6321.25
1004.7  6266.25
1004.6  6480
1004.5  6321.25
1004.4  6308.75
1004.3  6267.5
1004.2  6266.25
1004.1  6252.5
1004  6253.75
1003.9  6410
1003.8  6373.75
1003.7  6420
1003.6  6381.25
1003.5  6245
1003.4  6378.75
1003.3  6160
1003.2  6350
1003.1  6280
1003  6195
1002.9  6337.5
1002.8  6283.75
1002.7  6280
1002.6  6165
1002.5  6327.5
1002.4  6476.25
1002.3  6487.5
1002.2  6326.25
1002.1  6261.25
1002  6337.5
1001.9  6268.75
1001.8  6240
1001.7  6346.25
1001.6  6236.25
1001.5  6285
1001.4  6298.75
1001.3  6296.25
1001.2  6213.75
1001.1  6337.5
1001  6377.5
1000.9  6321.25
1000.8  6358.75
1000.7  6283.75
1000.6  6473.75
1000.5  6218.75
1000.4  6370
1000.3  6401.25
1000.2  6328.75
1000.1  6277.5
1000  6353.75
999.9  6538.75
999.8  6315
999.7  6380
999.6  6472.5
999.5  6457.5
999.4  6312.5
999.3  6316.25
999.2  6463.75
999.1  6312.5
999  6413.75
998.9  6408.75
998.8  6453.75
998.7  6396.25
998.6  6312.5
998.5  6427.5
998.4  6597.5
998.3  6440
998.2  6505
998.1  6472.5
998  6498.75
997.9  6446.25
997.8  6573.75
997.7  6556.25
997.6  6526.25
997.5  6560
997.4  6566.25
997.3  6528.75
997.2  6533.75
997.1  6473.75
997  6471.25
996.9  6728.75
996.8  6530
996.7  6793.75
996.6  6915
996.5  6623.75
996.4  6541.25
996.3  6623.75
996.2  6738.75
996.1  6670
996  6490
995.9  6561.25
995.8  6715
995.7  6631.25
995.6  6672.5
995.5  6640
995.4  6660
995.3  6641.25
995.2  6480
995.1  6622.5
995  6793.75
994.9  6682.5
994.8  6801.25
994.7  6766.25
994.6  6782.5
994.5  6663.75
994.4  6695
994.3  6833.75
994.2  6872.5
994.1  6597.5
994  6753.75
993.9  6706.25
993.8  6793.75
993.7  6635
993.6  6673.75
993.5  6613.75
993.4  6792.5
993.3  6701.25
993.2  6505
993.1  6501.25
993  6582.5
992.9  6518.75
992.8  6408.75
992.7  6667.5
992.6  6593.75
992.5  6392.5
992.4  6536.25
992.3  6352.5
992.2  6531.25
992.1  6458.75
992  6457.5
991.9  6545
991.8  6420
991.7  6421.25
991.6  6532.5
991.5  6381.25
991.4  6417.5
991.3  6286.25
991.2  6316.25
991.1  6468.75
991  6318.75
990.9  6337.5
990.8  6198.75
990.7  6467.5
990.6  6371.25
990.5  6405
990.4  6413.75
990.3  6347.5
990.2  6337.5
990.1  6447.5
990  6387.5
989.9  6290
989.8  6516.25
989.7  6393.75
989.6  6442.5
989.5  6476.25
989.4  6346.25
989.3  6410
989.2  6501.25
989.1  6327.5
989  6325
988.9  6390
988.8  6302.5
988.7  6458.75
988.6  6383.75
988.5  6357.5
988.4  6481.25
988.3  6281.25
988.2  6317.5
988.1  6173.75
988  6357.5
987.9  6577.5
987.8  6417.5
987.7  6208.75
987.6  6460
987.5  6405
987.4  6183.75
987.3  6478.75
987.2  6231.25
987.1  6281.25
987  6462.5
986.9  6390
986.8  6330
986.7  6411.25
986.6  6365
986.5  6505
986.4  6326.25
986.3  6170
986.2  6383.75
986.1  6318.75
986  6515
985.9  6410
985.8  6503.75
985.7  6318.75
985.6  6383.75
985.5  6185
985.4  6378.75
985.3  6168.75
985.2  6247.5
985.1  6253.75
985  6227.5
984.9  6238.75
984.8  6185
984.7  6383.75
984.6  6242.5
984.5  6295
984.4  6407.5
984.3  6312.5
984.2  6361.25
984.1  6245
984  6296.25
983.9  6213.75
983.8  6231.25
983.7  6251.25
983.6  6448.75
983.5  6388.75
983.4  6320
983.3  6320
983.2  6287.5
983.1  6247.5
983  6335
982.9  6228.75
982.8  6431.25
982.7  6366.25
982.6  6196.25
982.5  6252.5
982.4  6498.75
982.3  6268.75
982.2  6357.5
982.1  6255
982  6261.25
981.9  6290
981.8  6340
981.7  6381.25
981.6  6255
981.5  6347.5
981.4  6470
981.3  6352.5
981.2  6236.25
981.1  6340
981  6331.25
980.9  6313.75
980.8  6198.75
980.7  6437.5
980.6  6291.25
980.5  6241.25
980.4  6250
980.3  6406.25
980.2  6375
980.1  6487.5
980  6423.75
979.9  6167.5
979.8  6177.5
979.7  6338.75
979.6  6331.25
979.5  6530
979.4  6307.5
979.3  6531.25
979.2  6491.25
979.1  6476.25
979  6426.25
978.9  6342.5
978.8  6443.75
978.7  6307.5
978.6  6350
978.5  6473.75
978.4  6662.5
978.3  6362.5
978.2  6547.5
978.1  6465
978  6606.25
977.9  6647.5
977.8  6711.25
977.7  6813.75
977.6  6801.25
977.5  6758.75
977.4  6776.25
977.3  6808.75
977.2  6897.5
977.1  7076.25
977  7117.5
976.9  6870
976.8  7133.75
976.7  7267.5
976.6  7167.5
976.5  7246.25
976.4  7320
976.3  7481.25
976.2  7467.5
976.1  7743.75
976  7563.75
975.9  7618.75
975.8  7731.25
975.7  7768.75
975.6  7670
975.5  7835
975.4  7887.5
975.3  7796.25
975.2  7720
975.1  7940
975  7857.5
974.9  7997.5
974.8  7915
974.7  7886.25
974.6  7900
974.5  7870
974.4  7780
974.3  7823.75
974.2  7945
974.1  7915
974  7873.75
973.9  7567.5
973.8  7675
973.7  7743.75
973.6  7641.25
973.5  7497.5
973.4  7181.25
973.3  7245
973.2  7291.25
973.1  7360
973  7177.5
972.9  7080
972.8  7007.5
972.7  7098.75
972.6  7068.75
972.5  6826.25
972.4  6633.75
972.3  6851.25
972.2  6725
972.1  6737.5
972  6510
971.9  6661.25
971.8  6572.5
971.7  6750
971.6  6595
971.5  6471.25
971.4  6655
971.3  6547.5
971.2  6576.25
971.1  6565
971  6378.75
970.9  6378.75
970.8  6686.25
970.7  6307.5
970.6  6386.25
970.5  6335
970.4  6385
970.3  6385
970.2  6352.5
970.1  6367.5
970  6262.5
969.9  6230
969.8  6375
969.7  6271.25
969.6  6216.25
969.5  6298.75
969.4  6138.75
969.3  6146.25
969.2  6082.5
969.1  6132.5
969  6185
968.9  6087.5
968.8  6195
968.7  6071.25
968.6  6118.75
968.5  6056.25
968.4  6156.25
968.3  6186.25
968.2  6123.75
968.1  6302.5
968  6126.25
967.9  6111.25
967.8  6092.5
967.7  6121.25
967.6  6031.25
967.5  6105
967.4  5970
967.3  5921.25
967.2  6000
967.1  5918.75
967  5897.5
966.9  6038.75
966.8  6083.75
966.7  6031.25
966.6  5937.5
966.5  5760
966.4  5811.25
966.3  5953.75
966.2  5687.5
966.1  5886.25
966  5826.25

