# Created by:        SpecsLab Prodigy, Version 4.60.2-r85849 
#
# XY-Serializer Export Settings:
#   Comment Prefix:           #
#   Output meta data:         yes
#   Energy Axis:              Binding Energy
#   Count Rate:               Counts per Second
#   Separate Scan Data:       no
#   Separate Channel Data:    no
#   External Channel Data:    yes
#   Transmission Function:    no
#   ErrorBar:                 no
#   Operation Results:        yes
#   Time Zone Format:         UTC
#
# Group:             Spectrum Group
#
# Region:            C1s
# Acquisition Date:  08/24/22 10:01:44 UTC
# Analysis Method:   XPS
# Analyzer:          Phoibos 100 R6
# Analyzer Lens:     LargeArea:1.5kV
# Analyzer Slit:     1:0.2x20\B:open
# Scan Mode:         FixedAnalyzerTransmission
# Curves/Scan:       1
# Values/Curve:      151
# Dwell Time:        0.8
# Excitation Energy: 1486.61
# Binding Energy:    295
# Pass Energy:       30
# Bias Voltage:      90
# Detector Voltage:  2600
# Eff. Workfunction: 4.309
# Source:            X-Ray Dummy
# Comment:           
#
# Cycle: 0
# Number of Scans: 5
#
# Cycle: 0, Curve: 0
# Acquisition Date: 08/24/22 10:01:44 UTC
#
# ColumnLabels: energy counts/s
#
295  985.75
294.9  968.75
294.8  942.75
294.7  985.5
294.6  1001.25
294.5  965.75
294.4  990.25
294.3  963
294.2  961.75
294.1  973.5
294  971
293.9  968.5
293.8  965.75
293.7  971.25
293.6  972.5
293.5  972.75
293.4  983.75
293.3  973.25
293.2  968.25
293.1  984.5
293  952.5
292.9  971
292.8  962.25
292.7  981.75
292.6  963.5
292.5  986
292.4  992
292.3  999.25
292.2  989.75
292.1  1011
292  978.25
291.9  1016
291.8  967.75
291.7  974.5
291.6  959.75
291.5  977.5
291.4  968.75
291.3  996.25
291.2  956.5
291.1  975.5
291  974.75
290.9  970
290.8  983.5
290.7  972
290.6  990.75
290.5  986.5
290.4  1008.75
290.3  998
290.2  998.5
290.1  985
290  987.25
289.9  980.75
289.8  978.25
289.7  997.5
289.6  995
289.5  973.75
289.4  1005.5
289.3  1031.5
289.2  1009.5
289.1  1024.25
289  1001.75
288.9  1027
288.8  1075
288.7  1026.25
288.6  1026.75
288.5  1057
288.4  1060.75
288.3  1048.5
288.2  1074.75
288.1  1090.25
288  1076.25
287.9  1102.25
287.8  1103.5
287.7  1098
287.6  1081.5
287.5  1147.75
287.4  1127.75
287.3  1140
287.2  1159.5
287.1  1159
287  1144.75
286.9  1142.5
286.8  1180
286.7  1153.25
286.6  1183
286.5  1158.75
286.4  1192.75
286.3  1195.5
286.2  1178.75
286.1  1168
286  1168.25
285.9  1172.25
285.8  1165
285.7  1158.25
285.6  1175
285.5  1175.25
285.4  1183.5
285.3  1167.25
285.2  1122.25
285.1  1148.5
285  1101.75
284.9  1076.5
284.8  1064.25
284.7  1068.75
284.6  1053.5
284.5  1101
284.4  1064
284.3  1043.25
284.2  1012.25
284.1  1039.5
284  1006.25
283.9  984.75
283.8  999
283.7  999.75
283.6  1001
283.5  975.25
283.4  998
283.3  976
283.2  980.75
283.1  1014.25
283  966.75
282.9  990
282.8  968.75
282.7  967
282.6  959
282.5  975.25
282.4  986.25
282.3  990.25
282.2  990.75
282.1  979.5
282  937.75
281.9  973.5
281.8  961
281.7  978.5
281.6  975
281.5  950.25
281.4  954.25
281.3  971.75
281.2  950.25
281.1  976.75
281  957.25
280.9  984
280.8  995.5
280.7  978.5
280.6  965.5
280.5  961.75
280.4  980.75
280.3  993.25
280.2  977.75
280.1  1006.25
280  958.5

# Region:            N1s
# Acquisition Date:  08/24/22 10:35:36 UTC
# Analysis Method:   XPS
# Analyzer:          Phoibos 100 R6
# Analyzer Lens:     LargeArea:1.5kV
# Analyzer Slit:     1:0.2x20\B:open
# Scan Mode:         FixedAnalyzerTransmission
# Curves/Scan:       1
# Values/Curve:      121
# Dwell Time:        0.8
# Excitation Energy: 1486.61
# Binding Energy:    409
# Pass Energy:       30
# Bias Voltage:      90
# Detector Voltage:  2600
# Eff. Workfunction: 4.309
# Source:            X-Ray Dummy
# Comment:           
#
# Cycle: 0
# Number of Scans: 20
#
# Cycle: 0, Curve: 0
# Acquisition Date: 08/24/22 10:35:36 UTC
#
# ColumnLabels: energy counts/s
#
409  1060.5625
408.9  1072.9375
408.8  1086.8125
408.7  1087.9375
408.6  1071.875
408.5  1081
408.4  1090.375
408.3  1068.5625
408.2  1090.625
408.1  1093.875
408  1069.75
407.9  1087.25
407.8  1082.5625
407.7  1080.25
407.6  1075.5
407.5  1085
407.4  1080.5625
407.3  1090.4375
407.2  1081.0625
407.1  1095.4375
407  1079.5
406.9  1079.25
406.8  1075.1875
406.7  1082.8125
406.6  1087.875
406.5  1097.125
406.4  1074.1875
406.3  1073.1875
406.2  1089.5
406.1  1091.75
406  1084.875
405.9  1075.9375
405.8  1069.875
405.7  1092.125
405.6  1083.1875
405.5  1082.125
405.4  1079.875
405.3  1081.75
405.2  1076
405.1  1088.8125
405  1093.1875
404.9  1085.4375
404.8  1073.9375
404.7  1080.3125
404.6  1082.8125
404.5  1092.5
404.4  1079.3125
404.3  1081.1875
404.2  1084.5625
404.1  1082.4375
404  1078.6875
403.9  1081.8125
403.8  1078.625
403.7  1087.3125
403.6  1079
403.5  1075.375
403.4  1082.3125
403.3  1093.9375
403.2  1127.375
403.1  1089.25
403  1094.5625
402.9  1095.3125
402.8  1089.5
402.7  1092.0625
402.6  1096.25
402.5  1100.375
402.4  1119.25
402.3  1100.5
402.2  1093.125
402.1  1098.0625
402  1102.8125
401.9  1092.75
401.8  1104.375
401.7  1099.3125
401.6  1078.8125
401.5  1100.875
401.4  1097.5
401.3  1101.1875
401.2  1106.1875
401.1  1103.75
401  1108.0625
400.9  1097.4375
400.8  1110.5625
400.7  1101.5
400.6  1096.3125
400.5  1110.125
400.4  1106
400.3  1103.8125
400.2  1107
400.1  1118.875
400  1103.4375
399.9  1100.6875
399.8  1104.25
399.7  1097.875
399.6  1099.625
399.5  1095.4375
399.4  1091.8125
399.3  1096
399.2  1099.875
399.1  1086.25
399  1086.875
398.9  1088.875
398.8  1074.25
398.7  1090.1875
398.6  1072.6875
398.5  1074.3125
398.4  1071.1875
398.3  1086.75
398.2  1084.875
398.1  1081.6875
398  1088.0625
397.9  1071.1875
397.8  1063.6875
397.7  1069.5625
397.6  1079.5625
397.5  1080
397.4  1075.4375
397.3  1067.1875
397.2  1073.25
397.1  1076.0625
397  1057.0625

# Region:            O1s
# Acquisition Date:  08/24/22 10:15:57 UTC
# Analysis Method:   XPS
# Analyzer:          Phoibos 100 R6
# Analyzer Lens:     LargeArea:1.5kV
# Analyzer Slit:     1:0.2x20\B:open
# Scan Mode:         FixedAnalyzerTransmission
# Curves/Scan:       1
# Values/Curve:      141
# Dwell Time:        0.8
# Excitation Energy: 1486.61
# Binding Energy:    541
# Pass Energy:       30
# Bias Voltage:      90
# Detector Voltage:  2600
# Eff. Workfunction: 4.309
# Source:            X-Ray Dummy
# Comment:           
#
# Cycle: 0
# Number of Scans: 8
#
# Cycle: 0, Curve: 0
# Acquisition Date: 08/24/22 10:15:57 UTC
#
# ColumnLabels: energy counts/s
#
541  3754.375
540.9  3762.5
540.8  3735.9375
540.7  3779.6875
540.6  3780.3125
540.5  3744.0625
540.4  3751.0938
540.3  3699.0625
540.2  3721.7188
540.1  3757.1875
540  3702.3438
539.9  3762.3438
539.8  3744.6875
539.7  3717.0313
539.6  3716.7188
539.5  3688.4375
539.4  3699.5313
539.3  3685.7813
539.2  3713.5938
539.1  3711.7188
539  3686.7188
538.9  3713.5938
538.8  3703.5938
538.7  3706.5625
538.6  3747.9688
538.5  3693.5938
538.4  3694.6875
538.3  3700.625
538.2  3705.3125
538.1  3698.9063
538  3720.3125
537.9  3697.9688
537.8  3694.8438
537.7  3682.6563
537.6  3697.8125
537.5  3693.2813
537.4  3698.2813
537.3  3636.7188
537.2  3690.625
537.1  3674.5313
537  3658.125
536.9  3649.2188
536.8  3645.1563
536.7  3672.9688
536.6  3684.0625
536.5  3697.5
536.4  3652.1875
536.3  3696.0938
536.2  3661.5625
536.1  3649.2188
536  3685.7813
535.9  3652.9688
535.8  3690.7813
535.7  3670.1563
535.6  3675.3125
535.5  3710.625
535.4  3727.5
535.3  3724.6875
535.2  3674.6875
535.1  3721.7188
535  3768.2813
534.9  3772.0313
534.8  3816.25
534.7  3790.625
534.6  3836.25
534.5  3887.6563
534.4  3930.7813
534.3  3921.5625
534.2  3953.125
534.1  3997.6563
534  4057.6563
533.9  4116.4063
533.8  4177.6563
533.7  4250.3125
533.6  4261.0938
533.5  4321.7188
533.4  4350
533.3  4468.2813
533.2  4514.375
533.1  4582.5
533  4709.0625
532.9  4689.8438
532.8  4795.9375
532.7  4939.8438
532.6  5051.5625
532.5  5097.6563
532.4  5235.7813
532.3  5357.9688
532.2  5456.5625
532.1  5577.5
532  5704.8438
531.9  5891.7188
531.8  6061.7188
531.7  6162.6563
531.6  6427.0313
531.5  6552.1875
531.4  6678.4375
531.3  6781.25
531.2  7004.5313
531.1  7115.9375
531  7172.5
530.9  7251.4063
530.8  7337.3438
530.7  7389.2188
530.6  7292.1875
530.5  7216.4063
530.4  7150.4688
530.3  6952.0313
530.2  6807.9688
530.1  6581.875
530  6320.625
529.9  6115.7813
529.8  5847.8125
529.7  5582.8125
529.6  5263.2813
529.5  5080
529.4  4829.0625
529.3  4670.7813
529.2  4473.4375
529.1  4273.5938
529  4157.3438
528.9  4073.75
528.8  3967.8125
528.7  3898.125
528.6  3834.8438
528.5  3773.9063
528.4  3775
528.3  3712.8125
528.2  3690.3125
528.1  3673.9063
528  3653.9063
527.9  3645.625
527.8  3549.2188
527.7  3609.6875
527.6  3597.1875
527.5  3595.625
527.4  3587.5
527.3  3580.3125
527.2  3580.625
527.1  3564.8438
527  3532.9688

# Region:            In3d
# Acquisition Date:  08/24/22 09:48:30 UTC
# Analysis Method:   XPS
# Analyzer:          Phoibos 100 R6
# Analyzer Lens:     LargeArea:1.5kV
# Analyzer Slit:     1:0.2x20\B:open
# Scan Mode:         FixedAnalyzerTransmission
# Curves/Scan:       1
# Values/Curve:      231
# Dwell Time:        0.8
# Excitation Energy: 1486.61
# Binding Energy:    460
# Pass Energy:       30
# Bias Voltage:      90
# Detector Voltage:  2600
# Eff. Workfunction: 4.309
# Source:            X-Ray Dummy
# Comment:           
#
# Cycle: 0
# Number of Scans: 2
#
# Cycle: 0, Curve: 0
# Acquisition Date: 08/24/22 09:48:30 UTC
#
# ColumnLabels: energy counts/s
#
460  3118.75
459.9  3096.875
459.8  3086.875
459.7  3108.125
459.6  3045.625
459.5  3143.75
459.4  3115
459.3  3079.375
459.2  3020
459.1  2972.5
459  3049.375
458.9  3050.625
458.8  3038.75
458.7  3014.375
458.6  3034.375
458.5  2981.875
458.4  2970
458.3  3015
458.2  2925
458.1  2931.875
458  2898.125
457.9  2890.625
457.8  3026.25
457.7  3036.25
457.6  2925
457.5  2924.375
457.4  2998.125
457.3  2920
457.2  2985
457.1  2966.25
457  2908.75
456.9  3038.125
456.8  2998.75
456.7  2898.125
456.6  2925.625
456.5  3078.75
456.4  2970
456.3  3016.875
456.2  3098.75
456.1  3066.875
456  3066.25
455.9  3169.375
455.8  3163.125
455.7  3246.25
455.6  3338.125
455.5  3388.125
455.4  3413.125
455.3  3603.75
455.2  3658.75
455.1  3841.25
455  3856.875
454.9  3995.625
454.8  4228.75
454.7  4347.5
454.6  4655.625
454.5  4938.125
454.4  5264.375
454.3  5498.125
454.2  5899.375
454.1  6320
454  6781.25
453.9  7173.125
453.8  7558.75
453.7  8278.125
453.6  8683.75
453.5  9223.125
453.4  9888.75
453.3  10406.25
453.2  10726.25
453.1  11165
453  11627.5
452.9  12032.5
452.8  12388.125
452.7  12401.875
452.6  12665
452.5  12263.125
452.4  12060
452.3  11522.5
452.2  11220.625
452.1  10686.25
452  9930
451.9  9232.5
451.8  8641.875
451.7  7783.75
451.6  7109.375
451.5  6398.125
451.4  5888.125
451.3  5263.75
451.2  4870.625
451.1  4326.875
451  4146.25
450.9  3626.25
450.8  3467.5
450.7  3161.25
450.6  3101.875
450.5  2861.875
450.4  2745
450.3  2689.375
450.2  2694.375
450.1  2587.5
450  2628.75
449.9  2454.375
449.8  2441.25
449.7  2484.375
449.6  2460
449.5  2420.625
449.4  2439.375
449.3  2433.125
449.2  2381.875
449.1  2353.125
449  2508.125
448.9  2377.5
448.8  2520
448.7  2438.125
448.6  2513.125
448.5  2579.375
448.4  2659.375
448.3  2673.125
448.2  2701.875
448.1  2855
448  2955.625
447.9  2976.875
447.8  3205
447.7  3271.875
447.6  3495.625
447.5  3691.875
447.4  3951.25
447.3  4195.625
447.2  4605
447.1  4784.375
447  5285
446.9  5671.875
446.8  6182.5
446.7  6420.625
446.6  7190.625
446.5  7848.125
446.4  8288.125
446.3  9138.125
446.2  9823.75
446.1  10656.25
446  11353.125
445.9  12263.75
445.8  13045
445.7  13786.875
445.6  14463.125
445.5  15073.75
445.4  15522.5
445.3  15865
445.2  16226.25
445.1  16385.625
445  16158.75
444.9  15743.75
444.8  15514.375
444.7  15095.625
444.6  14295
444.5  13289.375
444.4  12415.625
444.3  11537.5
444.2  10576.25
444.1  9468.125
444  8672.5
443.9  7842.5
443.8  6944.375
443.7  6111.875
443.6  5604.375
443.5  5049.375
443.4  4468.75
443.3  4346.25
443.2  3881.875
443.1  3648.125
443  3480.625
442.9  3273.75
442.8  3241.875
442.7  3060.625
442.6  2948.75
442.5  2905.625
442.4  2866.875
442.3  2740
442.2  2590.625
442.1  2503.125
442  2481.875
441.9  2366.25
441.8  2328.75
441.7  2342.5
441.6  2196.25
441.5  2163.125
441.4  2188.125
441.3  2123.125
441.2  2088.125
441.1  2094.375
441  2055.625
440.9  2029.375
440.8  2046.875
440.7  1975.625
440.6  1966.875
440.5  1973.75
440.4  1901.875
440.3  1864.375
440.2  1823.125
440.1  1745.625
440  1748.75
439.9  1745.625
439.8  1707.5
439.7  1655.625
439.6  1612.5
439.5  1664.375
439.4  1585.625
439.3  1691.875
439.2  1563.125
439.1  1578.125
439  1572.5
438.9  1547.5
438.8  1497.5
438.7  1502.5
438.6  1480
438.5  1471.25
438.4  1519.375
438.3  1423.75
438.2  1490.625
438.1  1441.25
438  1461.25
437.9  1466.875
437.8  1410.625
437.7  1461.875
437.6  1542.5
437.5  1515.625
437.4  1516.875
437.3  1506.25
437.2  1510.625
437.1  1639.375
437  1580

