# Created by:        SpecsLab Prodigy, Version 4.60.2-r85849 
#
# XY-Serializer Export Settings:
#   Comment Prefix:           #
#   Output meta data:         yes
#   Energy Axis:              Binding Energy
#   Count Rate:               Counts per Second
#   Separate Scan Data:       no
#   Separate Channel Data:    no
#   External Channel Data:    yes
#   Transmission Function:    no
#   ErrorBar:                 no
#   Operation Results:        yes
#   Time Zone Format:         UTC
#
# Group:             Spectrum Group
#
# Region:            C1s
# Acquisition Date:  08/23/22 12:11:44 UTC
# Analysis Method:   XPS
# Analyzer:          Phoibos 100 R6
# Analyzer Lens:     LargeArea:1.5kV
# Analyzer Slit:     1:0.2x20\B:open
# Scan Mode:         FixedAnalyzerTransmission
# Curves/Scan:       1
# Values/Curve:      151
# Dwell Time:        0.8
# Excitation Energy: 1486.61
# Binding Energy:    295
# Pass Energy:       30
# Bias Voltage:      90
# Detector Voltage:  2600
# Eff. Workfunction: 4.309
# Source:            X-Ray Dummy
# Comment:           
#
# Cycle: 0
# Number of Scans: 6
#
# Cycle: 0, Curve: 0
# Acquisition Date: 08/23/22 12:11:44 UTC
#
# ColumnLabels: energy counts/s
#
295  977.5
294.9  997.29167
294.8  987.29167
294.7  972.70833
294.6  1015.2083
294.5  957.70833
294.4  986.875
294.3  971.45833
294.2  966.66667
294.1  979.375
294  968.54167
293.9  990.20833
293.8  965.20833
293.7  976.25
293.6  961.875
293.5  963.33333
293.4  948.54167
293.3  992.08333
293.2  982.70833
293.1  990.41667
293  965.625
292.9  958.95833
292.8  965
292.7  981.25
292.6  961.66667
292.5  955
292.4  958.54167
292.3  972.08333
292.2  972.5
292.1  960.41667
292  994.16667
291.9  957.29167
291.8  959.375
291.7  992.91667
291.6  970.20833
291.5  974.16667
291.4  987.91667
291.3  964.58333
291.2  984.16667
291.1  1008.75
291  965.625
290.9  990.41667
290.8  984.375
290.7  988.54167
290.6  969.79167
290.5  986.25
290.4  996.875
290.3  972.5
290.2  958.54167
290.1  960.20833
290  963.95833
289.9  984.375
289.8  986.45833
289.7  1016.875
289.6  955.41667
289.5  997.29167
289.4  992.08333
289.3  983.95833
289.2  992.08333
289.1  979.58333
289  993.75
288.9  966.45833
288.8  963.75
288.7  964.16667
288.6  994.16667
288.5  1004.1667
288.4  970.83333
288.3  975.20833
288.2  1000.4167
288.1  959.58333
288  987.29167
287.9  979.79167
287.8  987.08333
287.7  992.70833
287.6  988.95833
287.5  972.5
287.4  966.875
287.3  983.33333
287.2  977.70833
287.1  993.33333
287  966.875
286.9  980.625
286.8  965.41667
286.7  1015.8333
286.6  980
286.5  990.20833
286.4  997.08333
286.3  961.66667
286.2  975.41667
286.1  992.5
286  993.95833
285.9  982.08333
285.8  981.04167
285.7  1003.9583
285.6  982.08333
285.5  957.5
285.4  967.91667
285.3  1009.5833
285.2  979.58333
285.1  965.83333
285  987.70833
284.9  1012.0833
284.8  1001.25
284.7  995.83333
284.6  979.79167
284.5  969.375
284.4  999.79167
284.3  994.79167
284.2  972.91667
284.1  990.625
284  968.75
283.9  978.54167
283.8  992.70833
283.7  996.25
283.6  982.29167
283.5  965.41667
283.4  987.91667
283.3  988.54167
283.2  969.16667
283.1  972.70833
283  968.33333
282.9  963.125
282.8  972.5
282.7  969.375
282.6  967.70833
282.5  976.875
282.4  968.33333
282.3  984.16667
282.2  971.45833
282.1  989.58333
282  1006.6667
281.9  1000
281.8  969.16667
281.7  976.04167
281.6  959.375
281.5  980.41667
281.4  970
281.3  959.375
281.2  985.625
281.1  980.41667
281  1002.9167
280.9  971.04167
280.8  985.20833
280.7  989.16667
280.6  965.83333
280.5  977.08333
280.4  976.04167
280.3  981.25
280.2  972.29167
280.1  988.33333
280  986.45833

# Region:            overview
# Acquisition Date:  08/23/22 12:00:50 UTC
# Analysis Method:   XPS
# Analyzer:          Phoibos 100 R6
# Analyzer Lens:     MediumArea:1.5kV
# Analyzer Slit:     1:0.2x20\B:open
# Scan Mode:         FixedAnalyzerTransmission
# Curves/Scan:       1
# Values/Curve:      1205
# Dwell Time:        0.2
# Excitation Energy: 1486.61
# Binding Energy:    1200
# Pass Energy:       50
# Bias Voltage:      90
# Detector Voltage:  2600
# Eff. Workfunction: 4.309
# Source:            X-Ray Dummy
# Comment:           
#
# Cycle: 0
# Number of Scans: 3
#
# Cycle: 0, Curve: 0
# Acquisition Date: 08/23/22 12:00:50 UTC
#
# ColumnLabels: energy counts/s
#
1200  11128.333
1199  10895
1198  10933.333
1197  11111.667
1196  11103.333
1195  11041.667
1194  11220
1193  11275
1192  11108.333
1191  11040
1190  10843.333
1189  10686.667
1188  10796.667
1187  10590
1186  10351.667
1185  10281.667
1184  10296.667
1183  10136.667
1182  10006.667
1181  10168.333
1180  10010
1179  9951.6667
1178  9738.3333
1177  9653.3333
1176  9950
1175  9906.6667
1174  9846.6667
1173  10093.333
1172  10061.667
1171  9708.3333
1170  9845
1169  10006.667
1168  9910
1167  9873.3333
1166  10101.667
1165  9946.6667
1164  9945
1163  10033.333
1162  9965
1161  10091.667
1160  9975
1159  10068.333
1158  10175
1157  10166.667
1156  10318.333
1155  10066.667
1154  10000
1153  10000
1152  9873.3333
1151  9978.3333
1150  9806.6667
1149  9678.3333
1148  9860
1147  9716.6667
1146  9600
1145  9543.3333
1144  9256.6667
1143  9485
1142  9153.3333
1141  9090
1140  9030
1139  8811.6667
1138  8396.6667
1137  8460
1136  8291.6667
1135  8076.6667
1134  7970
1133  8030
1132  7883.3333
1131  7726.6667
1130  7636.6667
1129  7501.6667
1128  7608.3333
1127  7500
1126  7443.3333
1125  7411.6667
1124  7408.3333
1123  7458.3333
1122  7390
1121  7313.3333
1120  7365
1119  7716.6667
1118  7196.6667
1117  7231.6667
1116  7240
1115  7155
1114  7230
1113  7301.6667
1112  7275
1111  7356.6667
1110  7280
1109  7360
1108  7458.3333
1107  7443.3333
1106  7341.6667
1105  7306.6667
1104  7498.3333
1103  7366.6667
1102  7273.3333
1101  7491.6667
1100  7726.6667
1099  7560
1098  7696.6667
1097  7721.6667
1096  8005
1095  7945
1094  8153.3333
1093  8150
1092  8613.3333
1091  8615
1090  9413.3333
1089  10073.333
1088  11298.333
1087  11943.333
1086  12158.333
1085  11316.667
1084  10448.333
1083  9563.3333
1082  8806.6667
1081  9133.3333
1080  9223.3333
1079  8820
1078  8120
1077  7311.6667
1076  6626.6667
1075  6115
1074  5885
1073  5701.6667
1072  5740
1071  5735
1070  5756.6667
1069  5585
1068  5658.3333
1067  5675
1066  5466.6667
1065  5741.6667
1064  5736.6667
1063  5746.6667
1062  5615
1061  5840
1060  5740
1059  5390
1058  5266.6667
1057  5201.6667
1056  5045
1055  4933.3333
1054  5100
1053  5135
1052  5083.3333
1051  4893.3333
1050  4791.6667
1049  4581.6667
1048  4953.3333
1047  4716.6667
1046  4705
1045  4833.3333
1044  4881.6667
1043  4938.3333
1042  4648.3333
1041  4705
1040  4738.3333
1039  4676.6667
1038  4873.3333
1037  4678.3333
1036  4531.6667
1035  4746.6667
1034  4603.3333
1033  4705
1032  4738.3333
1031  4700
1030  4726.6667
1029  4675
1028  4765
1027  4605
1026  4575
1025  4625
1024  4670
1023  4735
1022  4796.6667
1021  4593.3333
1020  4700
1019  4695
1018  4686.6667
1017  4728.3333
1016  4785
1015  4576.6667
1014  4721.6667
1013  4668.3333
1012  4765
1011  4795
1010  4735
1009  4740
1008  4870
1007  4786.6667
1006  4721.6667
1005  4611.6667
1004  4625
1003  4675
1002  4561.6667
1001  4675
1000  4748.3333
999  4678.3333
998  4805
997  4878.3333
996  5038.3333
995  4750
994  4953.3333
993  4763.3333
992  4815
991  4743.3333
990  4776.6667
989  4705
988  4676.6667
987  4745
986  4723.3333
985  4643.3333
984  4650
983  4676.6667
982  4536.6667
981  4698.3333
980  4808.3333
979  4893.3333
978  4818.3333
977  5090
976  5665
975  6068.3333
974  5991.6667
973  5386.6667
972  4983.3333
971  4901.6667
970  4803.3333
969  4508.3333
968  4581.6667
967  4511.6667
966  4345
965  4193.3333
964  4063.3333
963  4311.6667
962  4235
961  3960
960  4133.3333
959  4221.6667
958  4236.6667
957  4196.6667
956  4238.3333
955  4161.6667
954  4236.6667
953  3951.6667
952  4073.3333
951  4086.6667
950  4170
949  4145
948  4193.3333
947  3993.3333
946  4228.3333
945  4126.6667
944  4151.6667
943  4173.3333
942  4221.6667
941  4081.6667
940  4310
939  4165
938  4103.3333
937  4061.6667
936  4193.3333
935  4290
934  4251.6667
933  4196.6667
932  4321.6667
931  4200
930  4236.6667
929  4308.3333
928  4283.3333
927  4160
926  4155
925  4183.3333
924  4201.6667
923  4243.3333
922  4200
921  4121.6667
920  4165
919  4106.6667
918  4328.3333
917  4253.3333
916  4195
915  4188.3333
914  4176.6667
913  4098.3333
912  4388.3333
911  4251.6667
910  4171.6667
909  4218.3333
908  4268.3333
907  4088.3333
906  4128.3333
905  4198.3333
904  4241.6667
903  4265
902  4328.3333
901  4206.6667
900  4133.3333
899  4326.6667
898  4078.3333
897  4286.6667
896  4100
895  4285
894  4156.6667
893  4248.3333
892  4273.3333
891  4143.3333
890  4280
889  4185
888  4270
887  4150
886  4028.3333
885  4303.3333
884  4170
883  4243.3333
882  4243.3333
881  4196.6667
880  4255
879  4118.3333
878  4198.3333
877  4178.3333
876  4268.3333
875  4101.6667
874  4355
873  4366.6667
872  4220
871  4201.6667
870  4425
869  4333.3333
868  4175
867  4303.3333
866  4315
865  4266.6667
864  4238.3333
863  4296.6667
862  4173.3333
861  4235
860  4145
859  4131.6667
858  4390
857  4218.3333
856  4221.6667
855  4281.6667
854  4370
853  4250
852  4351.6667
851  4358.3333
850  4263.3333
849  4328.3333
848  4258.3333
847  4205
846  4291.6667
845  4400
844  4403.3333
843  4348.3333
842  4286.6667
841  4416.6667
840  4481.6667
839  4533.3333
838  4430
837  4355
836  4406.6667
835  4445
834  4575
833  4505
832  4781.6667
831  4728.3333
830  4821.6667
829  4750
828  4760
827  4865
826  4688.3333
825  4523.3333
824  4690
823  4656.6667
822  4433.3333
821  4596.6667
820  4435
819  4411.6667
818  4271.6667
817  4371.6667
816  4390
815  4506.6667
814  4460
813  4231.6667
812  4316.6667
811  4300
810  4275
809  4210
808  4340
807  4436.6667
806  4130
805  4480
804  4206.6667
803  4468.3333
802  4225
801  4351.6667
800  4271.6667
799  4421.6667
798  4383.3333
797  4341.6667
796  4236.6667
795  4308.3333
794  4426.6667
793  4390
792  4371.6667
791  4341.6667
790  4405
789  4291.6667
788  4363.3333
787  4153.3333
786  4293.3333
785  4321.6667
784  4320
783  4418.3333
782  4251.6667
781  4493.3333
780  4368.3333
779  4330
778  4393.3333
777  4283.3333
776  4273.3333
775  4495
774  4448.3333
773  4346.6667
772  4358.3333
771  4490
770  4346.6667
769  4366.6667
768  4400
767  4293.3333
766  4606.6667
765  4583.3333
764  4388.3333
763  4520
762  4591.6667
761  4613.3333
760  4575
759  4510
758  4571.6667
757  4491.6667
756  4568.3333
755  4521.6667
754  4581.6667
753  4423.3333
752  4578.3333
751  4426.6667
750  4603.3333
749  4498.3333
748  4461.6667
747  4413.3333
746  4618.3333
745  4543.3333
744  4476.6667
743  4423.3333
742  4550
741  4545
740  4713.3333
739  4330
738  4686.6667
737  4510
736  4686.6667
735  4745
734  4670
733  4788.3333
732  4636.6667
731  4531.6667
730  4688.3333
729  4558.3333
728  4761.6667
727  4618.3333
726  4825
725  4810
724  4851.6667
723  4863.3333
722  4928.3333
721  4696.6667
720  4988.3333
719  4848.3333
718  4985
717  4910
716  5065
715  5221.6667
714  4976.6667
713  4723.3333
712  4763.3333
711  4768.3333
710  4911.6667
709  4876.6667
708  5141.6667
707  5628.3333
706  5935
705  6796.6667
704  6696.6667
703  6340
702  5638.3333
701  5235
700  5015
699  4815
698  4611.6667
697  4520
696  4745
695  4826.6667
694  4856.6667
693  4551.6667
692  4736.6667
691  4645
690  4525
689  4581.6667
688  4733.3333
687  4560
686  4780
685  4833.3333
684  4783.3333
683  4556.6667
682  4553.3333
681  4555
680  4756.6667
679  4648.3333
678  4796.6667
677  4583.3333
676  4706.6667
675  4698.3333
674  4703.3333
673  4820
672  4785
671  5036.6667
670  5603.3333
669  6318.3333
668  7701.6667
667  8641.6667
666  8703.3333
665  7733.3333
664  6433.3333
663  5445
662  5110
661  4743.3333
660  4438.3333
659  4441.6667
658  4588.3333
657  4553.3333
656  4611.6667
655  4433.3333
654  4220
653  4236.6667
652  3963.3333
651  3818.3333
650  3965
649  3821.6667
648  3978.3333
647  3795
646  3961.6667
645  3925
644  3861.6667
643  3936.6667
642  3838.3333
641  3883.3333
640  3833.3333
639  3778.3333
638  3875
637  3978.3333
636  3880
635  3993.3333
634  3913.3333
633  3970
632  3905
631  3933.3333
630  3780
629  3780
628  3878.3333
627  3918.3333
626  3990
625  3926.6667
624  4038.3333
623  3896.6667
622  3743.3333
621  3893.3333
620  3905
619  4010
618  4113.3333
617  4166.6667
616  4016.6667
615  4003.3333
614  4085
613  3951.6667
612  4033.3333
611  4001.6667
610  4031.6667
609  4041.6667
608  3963.3333
607  3983.3333
606  3943.3333
605  4010
604  4151.6667
603  3988.3333
602  4108.3333
601  4103.3333
600  4215
599  4115
598  4083.3333
597  4061.6667
596  4203.3333
595  4201.6667
594  4001.6667
593  4071.6667
592  4055
591  4020
590  4216.6667
589  4055
588  4253.3333
587  4176.6667
586  4150
585  4118.3333
584  4341.6667
583  4235
582  4091.6667
581  4066.6667
580  4233.3333
579  4076.6667
578  4146.6667
577  4171.6667
576  4268.3333
575  4248.3333
574  4203.3333
573  4251.6667
572  4325
571  4180
570  4200
569  4315
568  4390
567  4273.3333
566  4196.6667
565  4345
564  4271.6667
563  4315
562  4166.6667
561  4248.3333
560  4280
559  4233.3333
558  4230
557  4306.6667
556  4321.6667
555  4415
554  4436.6667
553  4485
552  4505
551  4450
550  4335
549  4516.6667
548  4495
547  4703.3333
546  4455
545  4415
544  4491.6667
543  4493.3333
542  4175
541  4163.3333
540  4410
539  4371.6667
538  4258.3333
537  4163.3333
536  4103.3333
535  4268.3333
534  4530
533  4935
532  6158.3333
531  8325
530  7421.6667
529  5460
528  4460
527  4186.6667
526  4073.3333
525  4165
524  4151.6667
523  4170
522  4205
521  4468.3333
520  4370
519  4345
518  4150
517  4026.6667
516  4125
515  4096.6667
514  4088.3333
513  4168.3333
512  4085
511  4196.6667
510  4081.6667
509  4166.6667
508  4080
507  4203.3333
506  4158.3333
505  4093.3333
504  4305
503  4058.3333
502  4251.6667
501  4191.6667
500  4243.3333
499  4256.6667
498  4106.6667
497  4585
496  4883.3333
495  5008.3333
494  4481.6667
493  4096.6667
492  4166.6667
491  4071.6667
490  4123.3333
489  4533.3333
488  5206.6667
487  5273.3333
486  4835
485  4383.3333
484  4126.6667
483  4318.3333
482  4065
481  4001.6667
480  4045
479  4183.3333
478  4290
477  4043.3333
476  4053.3333
475  4173.3333
474  4363.3333
473  4363.3333
472  4256.6667
471  4340
470  4161.6667
469  4331.6667
468  4406.6667
467  4420
466  4371.6667
465  4578.3333
464  4580
463  4468.3333
462  4588.3333
461  4331.6667
460  4313.3333
459  4133.3333
458  4203.3333
457  4221.6667
456  4575
455  6236.6667
454  10573.333
453  16535
452  13786.667
451  6810
450  3825
449  3685
448  4825
447  8815
446  17275
445  21520
444  13606.667
443  5886.6667
442  3555
441  2783.3333
440  2408.3333
439  2153.3333
438  1998.3333
437  2366.6667
436  2838.3333
435  3086.6667
434  2836.6667
433  2330
432  1921.6667
431  1633.3333
430  1568.3333
429  1511.6667
428  1541.6667
427  1431.6667
426  1430
425  1528.3333
424  1498.3333
423  1500
422  1423.3333
421  1310
420  1423.3333
419  1385
418  1420
417  1420
416  1325
415  1390
414  1383.3333
413  1298.3333
412  1316.6667
411  1368.3333
410  1308.3333
409  1390
408  1345
407  1318.3333
406  1368.3333
405  1398.3333
404  1298.3333
403  1370
402  1358.3333
401  1306.6667
400  1276.6667
399  1405
398  1390
397  1395
396  1423.3333
395  1363.3333
394  1468.3333
393  1371.6667
392  1386.6667
391  1361.6667
390  1323.3333
389  1328.3333
388  1380
387  1388.3333
386  1431.6667
385  1336.6667
384  1380
383  1463.3333
382  1531.6667
381  1563.3333
380  1390
379  1400
378  1550
377  1465
376  1525
375  1536.6667
374  1453.3333
373  1381.6667
372  1328.3333
371  1318.3333
370  1271.6667
369  1268.3333
368  1286.6667
367  1231.6667
366  1261.6667
365  1221.6667
364  1261.6667
363  1270
362  1253.3333
361  1283.3333
360  1313.3333
359  1298.3333
358  1258.3333
357  1290
356  1323.3333
355  1345
354  1356.6667
353  1286.6667
352  1388.3333
351  1356.6667
350  1316.6667
349  1355
348  1273.3333
347  1271.6667
346  1246.6667
345  1265
344  1318.3333
343  1293.3333
342  1330
341  1233.3333
340  1371.6667
339  1381.6667
338  1223.3333
337  1246.6667
336  1260
335  1316.6667
334  1348.3333
333  1331.6667
332  1246.6667
331  1318.3333
330  1303.3333
329  1331.6667
328  1343.3333
327  1223.3333
326  1215
325  1291.6667
324  1348.3333
323  1235
322  1300
321  1285
320  1316.6667
319  1306.6667
318  1346.6667
317  1218.3333
316  1293.3333
315  1283.3333
314  1371.6667
313  1266.6667
312  1301.6667
311  1210
310  1263.3333
309  1365
308  1251.6667
307  1306.6667
306  1321.6667
305  1305
304  1276.6667
303  1256.6667
302  1383.3333
301  1371.6667
300  1376.6667
299  1396.6667
298  1215
297  1305
296  1255
295  1346.6667
294  1335
293  1323.3333
292  1365
291  1295
290  1296.6667
289  1345
288  1313.3333
287  1268.3333
286  1321.6667
285  1331.6667
284  1340
283  1411.6667
282  1235
281  1425
280  1220
279  1283.3333
278  1385
277  1301.6667
276  1370
275  1435
274  1280
273  1355
272  1368.3333
271  1261.6667
270  1303.3333
269  1301.6667
268  1286.6667
267  1310
266  1381.6667
265  1355
264  1423.3333
263  1346.6667
262  1415
261  1458.3333
260  1318.3333
259  1310
258  1336.6667
257  1270
256  1421.6667
255  1385
254  1385
253  1408.3333
252  1380
251  1388.3333
250  1381.6667
249  1290
248  1241.6667
247  1356.6667
246  1448.3333
245  1440
244  1450
243  1431.6667
242  1355
241  1378.3333
240  1346.6667
239  1383.3333
238  1413.3333
237  1303.3333
236  1333.3333
235  1358.3333
234  1328.3333
233  1448.3333
232  1343.3333
231  1373.3333
230  1315
229  1376.6667
228  1386.6667
227  1313.3333
226  1435
225  1350
224  1408.3333
223  1401.6667
222  1365
221  1355
220  1376.6667
219  1356.6667
218  1345
217  1268.3333
216  1381.6667
215  1273.3333
214  1421.6667
213  1431.6667
212  1336.6667
211  1383.3333
210  1408.3333
209  1415
208  1398.3333
207  1373.3333
206  1378.3333
205  1408.3333
204  1431.6667
203  1495
202  1391.6667
201  1393.3333
200  1410
199  1338.3333
198  1466.6667
197  1435
196  1398.3333
195  1321.6667
194  1446.6667
193  1400
192  1415
191  1400
190  1441.6667
189  1395
188  1310
187  1391.6667
186  1495
185  1488.3333
184  1471.6667
183  1448.3333
182  1471.6667
181  1513.3333
180  1393.3333
179  1421.6667
178  1450
177  1438.3333
176  1415
175  1490
174  1508.3333
173  1433.3333
172  1410
171  1408.3333
170  1560
169  1460
168  1386.6667
167  1501.6667
166  1461.6667
165  1398.3333
164  1471.6667
163  1491.6667
162  1406.6667
161  1463.3333
160  1478.3333
159  1380
158  1495
157  1501.6667
156  1556.6667
155  1488.3333
154  1430
153  1370
152  1383.3333
151  1521.6667
150  1475
149  1418.3333
148  1396.6667
147  1363.3333
146  1461.6667
145  1465
144  1460
143  1525
142  1463.3333
141  1488.3333
140  1536.6667
139  1490
138  1438.3333
137  1433.3333
136  1513.3333
135  1540
134  1533.3333
133  1546.6667
132  1533.3333
131  1530
130  1541.6667
129  1633.3333
128  1630
127  1610
126  1681.6667
125  1765
124  1833.3333
123  1741.6667
122  1575
121  1420
120  1598.3333
119  1518.3333
118  1448.3333
117  1463.3333
116  1465
115  1460
114  1456.6667
113  1431.6667
112  1430
111  1551.6667
110  1486.6667
109  1438.3333
108  1491.6667
107  1488.3333
106  1486.6667
105  1488.3333
104  1418.3333
103  1520
102  1538.3333
101  1535
100  1471.6667
99  1628.3333
98  1686.6667
97  1545
96  1518.3333
95  1615
94  1603.3333
93  1663.3333
92  1616.6667
91  1708.3333
90  1805
89  1755
88  1741.6667
87  1696.6667
86  1853.3333
85  1805
84  1848.3333
83  1813.3333
82  1953.3333
81  1803.3333
80  1948.3333
79  1903.3333
78  1723.3333
77  1760
76  1823.3333
75  1596.6667
74  1520
73  1456.6667
72  1475
71  1375
70  1343.3333
69  1320
68  1263.3333
67  1230
66  1223.3333
65  1208.3333
64  1070
63  1048.3333
62  1171.6667
61  1178.3333
60  1133.3333
59  1101.6667
58  1125
57  1105
56  1151.6667
55  1115
54  1121.6667
53  1110
52  1125
51  1026.6667
50  1073.3333
49  1065
48  1148.3333
47  1113.3333
46  1196.6667
45  1205
44  1143.3333
43  1131.6667
42  1063.3333
41  1120
40  1150
39  1091.6667
38  1208.3333
37  1253.3333
36  1170
35  1183.3333
34  1248.3333
33  1193.3333
32  1118.3333
31  1145
30  1123.3333
29  1190
28  1286.6667
27  1388.3333
26  1211.6667
25  1196.6667
24  1213.3333
23  1303.3333
22  1418.3333
21  1908.3333
20  3018.3333
19  4363.3333
18  3963.3333
17  2298.3333
16  1181.6667
15  913.33333
14  901.66667
13  851.66667
12  825
11  891.66667
10  1048.3333
9  1171.6667
8  1161.6667
7  1023.3333
6  1060
5  930
4  808.33333
3  690
2  698.33333
1  738.33333
-2.2737368e-013  603.33333
-1  685
-2  711.66667
-3  635
-4  675

# Region:            In3d
# Acquisition Date:  08/23/22 11:44:11 UTC
# Analysis Method:   XPS
# Analyzer:          Phoibos 100 R6
# Analyzer Lens:     LargeArea:1.5kV
# Analyzer Slit:     1:0.2x20\B:open
# Scan Mode:         FixedAnalyzerTransmission
# Curves/Scan:       1
# Values/Curve:      231
# Dwell Time:        0.8
# Excitation Energy: 1486.61
# Binding Energy:    460
# Pass Energy:       30
# Bias Voltage:      90
# Detector Voltage:  2600
# Eff. Workfunction: 4.309
# Source:            X-Ray Dummy
# Comment:           
#
# Cycle: 0
# Number of Scans: 2
#
# Cycle: 0, Curve: 0
# Acquisition Date: 08/23/22 11:44:11 UTC
#
# ColumnLabels: energy counts/s
#
460  3418.125
459.9  3477.5
459.8  3361.25
459.7  3446.875
459.6  3416.875
459.5  3380
459.4  3396.25
459.3  3370.625
459.2  3446.875
459.1  3322.5
459  3388.125
458.9  3324.375
458.8  3411.875
458.7  3424.375
458.6  3396.25
458.5  3418.125
458.4  3306.25
458.3  3360
458.2  3398.75
458.1  3405.625
458  3451.875
457.9  3378.75
457.8  3446.875
457.7  3355.625
457.6  3345.625
457.5  3347.5
457.4  3352.5
457.3  3308.125
457.2  3375
457.1  3425.625
457  3442.5
456.9  3541.875
456.8  3591.875
456.7  3562.5
456.6  3583.75
456.5  3691.25
456.4  3691.25
456.3  3695.625
456.2  3636.25
456.1  3711.875
456  3779.375
455.9  3976.875
455.8  3988.75
455.7  3986.875
455.6  4228.125
455.5  4170.625
455.4  4413.75
455.3  4541.875
455.2  4625.625
455.1  4835
455  5011.25
454.9  5323.125
454.8  5635
454.7  5855.625
454.6  6314.375
454.5  6543.75
454.4  7069.375
454.3  7473.75
454.2  7986.25
454.1  8468.125
454  8881.25
453.9  9481.25
453.8  10041.875
453.7  10696.875
453.6  11240
453.5  11844.375
453.4  12276.25
453.3  12927.5
453.2  13363.75
453.1  13839.375
453  14133.75
452.9  14305.625
452.8  14545.625
452.7  14507.5
452.6  14334.375
452.5  13871.25
452.4  13523.125
452.3  13117.5
452.2  12446.875
452.1  11585
452  10588.125
451.9  9855
451.8  9042.5
451.7  8212.5
451.6  7446.25
451.5  6631.25
451.4  6060.625
451.3  5489.375
451.2  5101.875
451.1  4593.75
451  4230.625
450.9  4061.875
450.8  3773.125
450.7  3504.375
450.6  3449.375
450.5  3360
450.4  3236.25
450.3  3030.625
450.2  3075.625
450.1  2973.125
450  2964.375
449.9  2860.625
449.8  2885.625
449.7  2827.5
449.6  2875.625
449.5  2825
449.4  2896.875
449.3  2822.5
449.2  2901.875
449.1  2871.875
449  2996.875
448.9  2995
448.8  3083.75
448.7  3099.375
448.6  3185.625
448.5  3290.625
448.4  3345
448.3  3626.875
448.2  3629.375
448.1  3773.75
448  3873.75
447.9  4043.125
447.8  4291.875
447.7  4519.375
447.6  4873.125
447.5  5186.25
447.4  5403.75
447.3  5731.25
447.2  6407.5
447.1  6795.625
447  7250
446.9  7770.625
446.8  8540.625
446.7  9233.125
446.6  9892.5
446.5  10672.5
446.4  11444.375
446.3  12247.5
446.2  13087.5
446.1  13782.5
446  14639.375
445.9  15424.375
445.8  16254.375
445.7  16988.75
445.6  17635.625
445.5  18213.75
445.4  18556.875
445.3  18911.875
445.2  19036.25
445.1  18788.75
445  18585
444.9  18054.375
444.8  17380
444.7  16639.375
444.6  15473.75
444.5  14653.75
444.4  13274.375
444.3  12088.125
444.2  10890
444.1  9811.25
444  8650
443.9  7861.25
443.8  6898.125
443.7  6343.75
443.6  5730
443.5  5171.875
443.4  4787.5
443.3  4518.75
443.2  4170
443.1  4010
443  3663.125
442.9  3480.625
442.8  3483.125
442.7  3381.25
442.6  3258.75
442.5  3151.875
442.4  2961.25
442.3  2947.5
442.2  2849.375
442.1  2760.625
442  2691.25
441.9  2611.875
441.8  2542.5
441.7  2429.375
441.6  2397.5
441.5  2373.75
441.4  2366.25
441.3  2320
441.2  2261.875
441.1  2276.25
441  2188.75
440.9  2178.75
440.8  2105
440.7  2139.375
440.6  2096.875
440.5  2113.75
440.4  2040
440.3  2001.25
440.2  1927.5
440.1  1895
440  1881.875
439.9  1907.5
439.8  1860.625
439.7  1793.75
439.6  1803.75
439.5  1736.875
439.4  1725.625
439.3  1693.125
439.2  1726.875
439.1  1654.375
439  1640
438.9  1591.875
438.8  1585.625
438.7  1602.5
438.6  1616.25
438.5  1559.375
438.4  1626.875
438.3  1605
438.2  1581.875
438.1  1664.375
438  1609.375
437.9  1600
437.8  1607.5
437.7  1642.5
437.6  1701.875
437.5  1710
437.4  1685.625
437.3  1700
437.2  1788.125
437.1  1738.125
437  1818.125

# Region:            Sn3d
# Acquisition Date:  08/23/22 11:47:19 UTC
# Analysis Method:   XPS
# Analyzer:          Phoibos 100 R6
# Analyzer Lens:     LargeArea:1.5kV
# Analyzer Slit:     1:0.2x20\B:open
# Scan Mode:         FixedAnalyzerTransmission
# Curves/Scan:       1
# Values/Curve:      231
# Dwell Time:        0.8
# Excitation Energy: 1486.61
# Binding Energy:    503
# Pass Energy:       30
# Bias Voltage:      90
# Detector Voltage:  2600
# Eff. Workfunction: 4.309
# Source:            X-Ray Dummy
# Comment:           
#
# Cycle: 0
# Number of Scans: 2
#
# Cycle: 0, Curve: 0
# Acquisition Date: 08/23/22 11:47:19 UTC
#
# ColumnLabels: energy counts/s
#
503  3570
502.9  3603.125
502.8  3605.625
502.7  3557.5
502.6  3568.125
502.5  3481.875
502.4  3521.25
502.3  3526.875
502.2  3602.5
502.1  3409.375
502  3515
501.9  3562.5
501.8  3515
501.7  3460
501.6  3558.125
501.5  3530.625
501.4  3510
501.3  3569.375
501.2  3591.25
501.1  3505.625
501  3539.375
500.9  3520
500.8  3545.625
500.7  3512.5
500.6  3563.125
500.5  3508.125
500.4  3534.375
500.3  3498.125
500.2  3536.875
500.1  3564.375
500  3490
499.9  3524.375
499.8  3539.375
499.7  3506.875
499.6  3500
499.5  3587.5
499.4  3490
499.3  3568.75
499.2  3505.625
499.1  3458.125
499  3585
498.9  3605.625
498.8  3560
498.7  3604.375
498.6  3593.125
498.5  3670
498.4  3531.25
498.3  3656.25
498.2  3514.375
498.1  3621.25
498  3704.375
497.9  3718.125
497.8  3672.5
497.7  3710
497.6  3839.375
497.5  3781.25
497.4  3779.375
497.3  3769.375
497.2  3825
497.1  3914.375
497  3964.375
496.9  3894.375
496.8  3983.75
496.7  4054.375
496.6  4093.75
496.5  4164.375
496.4  4180.625
496.3  4225.625
496.2  4218.75
496.1  4188.125
496  4280
495.9  4210
495.8  4353.75
495.7  4316.25
495.6  4328.125
495.5  4330
495.4  4320.625
495.3  4337.5
495.2  4241.25
495.1  4234.375
495  4212.5
494.9  4181.875
494.8  4019.375
494.7  4040.625
494.6  3941.25
494.5  3940.625
494.4  3820
494.3  3780.625
494.2  3764.375
494.1  3784.375
494  3674.375
493.9  3581.25
493.8  3596.875
493.7  3574.375
493.6  3568.75
493.5  3539.375
493.4  3516.875
493.3  3515
493.2  3493.125
493.1  3508.75
493  3503.75
492.9  3449.375
492.8  3465.625
492.7  3454.375
492.6  3368.75
492.5  3440
492.4  3544.375
492.3  3420.625
492.2  3422.5
492.1  3453.75
492  3410.625
491.9  3387.5
491.8  3352.5
491.7  3411.25
491.6  3375.625
491.5  3453.125
491.4  3543.75
491.3  3433.75
491.2  3453.75
491.1  3420
491  3495
490.9  3411.875
490.8  3395.625
490.7  3388.75
490.6  3434.375
490.5  3418.75
490.4  3498.75
490.3  3462.5
490.2  3550.625
490.1  3532.5
490  3513.75
489.9  3611.25
489.8  3641.25
489.7  3622.5
489.6  3649.375
489.5  3692.5
489.4  3658.75
489.3  3735
489.2  3787.5
489.1  3795.625
489  3893.125
488.9  3879.375
488.8  3898.75
488.7  3959.375
488.6  4075.625
488.5  4098.75
488.4  4093.125
488.3  4133.75
488.2  4276.25
488.1  4277.5
488  4281.875
487.9  4330
487.8  4402.5
487.7  4448.75
487.6  4426.875
487.5  4541.25
487.4  4576.25
487.3  4555.625
487.2  4683.125
487.1  4624.375
487  4553.75
486.9  4630
486.8  4526.25
486.7  4420.625
486.6  4396.875
486.5  4406.875
486.4  4300
486.3  4251.25
486.2  4158.75
486.1  3994.375
486  3974.375
485.9  4000.625
485.8  3858.125
485.7  3807.5
485.6  3634.375
485.5  3662.5
485.4  3604.375
485.3  3602.5
485.2  3581.875
485.1  3473.75
485  3518.125
484.9  3523.75
484.8  3457.5
484.7  3545
484.6  3547.5
484.5  3437.5
484.4  3481.25
484.3  3346.875
484.2  3378.75
484.1  3390.625
484  3443.125
483.9  3506.875
483.8  3431.25
483.7  3346.875
483.6  3416.875
483.5  3441.25
483.4  3385.625
483.3  3296.25
483.2  3380
483.1  3404.375
483  3319.375
482.9  3425.625
482.8  3333.125
482.7  3388.125
482.6  3393.75
482.5  3315.625
482.4  3426.875
482.3  3398.125
482.2  3378.75
482.1  3390
482  3362.5
481.9  3295
481.8  3435
481.7  3365
481.6  3381.25
481.5  3371.25
481.4  3320
481.3  3394.375
481.2  3388.75
481.1  3406.25
481  3292.5
480.9  3363.125
480.8  3347.5
480.7  3356.875
480.6  3377.5
480.5  3453.75
480.4  3294.375
480.3  3369.375
480.2  3366.25
480.1  3331.25
480  3360

# Region:            O1s
# Acquisition Date:  08/23/22 12:13:14 UTC
# Analysis Method:   XPS
# Analyzer:          Phoibos 100 R6
# Analyzer Lens:     LargeArea:1.5kV
# Analyzer Slit:     1:0.2x20\B:open
# Scan Mode:         FixedAnalyzerTransmission
# Curves/Scan:       1
# Values/Curve:      111
# Dwell Time:        0.8
# Excitation Energy: 1486.61
# Binding Energy:    538
# Pass Energy:       30
# Bias Voltage:      90
# Detector Voltage:  2600
# Eff. Workfunction: 4.309
# Source:            X-Ray Dummy
# Comment:           
#
# Cycle: 0
# Number of Scans: 6
#
# Cycle: 0, Curve: 0
# Acquisition Date: 08/23/22 12:13:14 UTC
#
# ColumnLabels: energy counts/s
#
538  3751.0417
537.9  3771.4583
537.8  3771.6667
537.7  3798.3333
537.6  3821.875
537.5  3761.25
537.4  3783.125
537.3  3763.75
537.2  3835.2083
537.1  3752.5
537  3781.6667
536.9  3752.9167
536.8  3761.6667
536.7  3790.4167
536.6  3782.9167
536.5  3701.25
536.4  3757.0833
536.3  3741.6667
536.2  3718.5417
536.1  3773.125
536  3783.125
535.9  3722.9167
535.8  3741.6667
535.7  3765
535.6  3761.875
535.5  3731.4583
535.4  3782.7083
535.3  3806.875
535.2  3715.625
535.1  3773.5417
535  3774.7917
534.9  3820
534.8  3795.2083
534.7  3810.625
534.6  3807.7083
534.5  3781.0417
534.4  3781.875
534.3  3856.875
534.2  3853.3333
534.1  3885.2083
534  3896.25
533.9  3927.7083
533.8  4045.625
533.7  4066.6667
533.6  4068.5417
533.5  4127.0833
533.4  4128.9583
533.3  4201.25
533.2  4246.4583
533.1  4347.7083
533  4441.4583
532.9  4528.125
532.8  4556.4583
532.7  4768.125
532.6  4842.9167
532.5  4991.875
532.4  5118.9583
532.3  5253.5417
532.2  5400.8333
532.1  5605
532  5839.5833
531.9  5951.4583
531.8  6226.0417
531.7  6458.9583
531.6  6696.6667
531.5  6883.3333
531.4  7071.875
531.3  7283.5417
531.2  7539.7917
531.1  7583.3333
531  7695.8333
530.9  7869.1667
530.8  7825
530.7  7802.7083
530.6  7835.8333
530.5  7651.6667
530.4  7446.875
530.3  7191.0417
530.2  7017.9167
530.1  6712.5
530  6446.6667
529.9  6096.0417
529.8  5858.125
529.7  5537.5
529.6  5276.0417
529.5  5008.125
529.4  4727.2917
529.3  4584.1667
529.2  4421.25
529.1  4236.6667
529  4149.7917
528.9  4035.625
528.8  3956.6667
528.7  3952.7083
528.6  3868.3333
528.5  3787.2917
528.4  3824.5833
528.3  3747.2917
528.2  3726.6667
528.1  3749.5833
528  3723.9583
527.9  3678.3333
527.8  3641.25
527.7  3615.4167
527.6  3719.7917
527.5  3638.9583
527.4  3583.9583
527.3  3638.3333
527.2  3659.375
527.1  3677.7083
527  3612.5

# Region:            N1s
# Acquisition Date:  08/23/22 11:50:11 UTC
# Analysis Method:   XPS
# Analyzer:          Phoibos 100 R6
# Analyzer Lens:     LargeArea:1.5kV
# Analyzer Slit:     1:0.2x20\B:open
# Scan Mode:         FixedAnalyzerTransmission
# Curves/Scan:       1
# Values/Curve:      101
# Dwell Time:        0.8
# Excitation Energy: 1486.61
# Binding Energy:    405
# Pass Energy:       30
# Bias Voltage:      90
# Detector Voltage:  2600
# Eff. Workfunction: 4.309
# Source:            X-Ray Dummy
# Comment:           
#
# Cycle: 0
# Number of Scans: 2
#
# Cycle: 0, Curve: 0
# Acquisition Date: 08/23/22 11:50:11 UTC
#
# ColumnLabels: energy counts/s
#
405  1102.5
404.9  1085.625
404.8  1109.375
404.7  1097.5
404.6  1061.25
404.5  1092.5
404.4  1076.875
404.3  1079.375
404.2  1066.25
404.1  1067.5
404  1071.25
403.9  1119.375
403.8  1087.5
403.7  1095.625
403.6  1099.375
403.5  1079.375
403.4  1122.5
403.3  1084.375
403.2  1088.75
403.1  1118.75
403  1094.375
402.9  1112.5
402.8  1086.875
402.7  1093.75
402.6  1111.875
402.5  1126.25
402.4  1078.125
402.3  1061.875
402.2  1092.5
402.1  1084.375
402  1131.875
401.9  1160.625
401.8  1100
401.7  1110.625
401.6  1075
401.5  1064.375
401.4  1095.625
401.3  1122.5
401.2  1114.375
401.1  1118.125
401  1091.25
400.9  1084.375
400.8  1086.875
400.7  1078.125
400.6  1086.25
400.5  1081.875
400.4  1063.75
400.3  1086.25
400.2  1121.25
400.1  1095
400  1080
399.9  1098.125
399.8  1108.75
399.7  1146.25
399.6  1100.625
399.5  1086.25
399.4  1045
399.3  1078.125
399.2  1090.625
399.1  1050.625
399  1105
398.9  1115.625
398.8  1066.875
398.7  1048.125
398.6  1108.75
398.5  1079.375
398.4  1147.5
398.3  1122.5
398.2  1101.875
398.1  1083.75
398  1084.375
397.9  1076.875
397.8  1103.75
397.7  1127.5
397.6  1125
397.5  1066.875
397.4  1094.375
397.3  1115.625
397.2  1098.125
397.1  1071.875
397  1063.125
396.9  1096.875
396.8  1064.375
396.7  1098.75
396.6  1038.125
396.5  1035.625
396.4  1122.5
396.3  1096.875
396.2  1079.375
396.1  1070.625
396  1077.5
395.9  1090
395.8  1098.125
395.7  1093.125
395.6  1111.875
395.5  1060.625
395.4  1085.625
395.3  1106.25
395.2  1090
395.1  1106.875
395  1105

# Region:            Si2p
# Acquisition Date:  08/23/22 11:51:09 UTC
# Analysis Method:   XPS
# Analyzer:          Phoibos 100 R6
# Analyzer Lens:     LargeArea:1.5kV
# Analyzer Slit:     1:0.2x20\B:open
# Scan Mode:         FixedAnalyzerTransmission
# Curves/Scan:       1
# Values/Curve:      71
# Dwell Time:        0.8
# Excitation Energy: 1486.61
# Binding Energy:    107
# Pass Energy:       30
# Bias Voltage:      90
# Detector Voltage:  2600
# Eff. Workfunction: 4.309
# Source:            X-Ray Dummy
# Comment:           
#
# Cycle: 0
# Number of Scans: 2
#
# Cycle: 0, Curve: 0
# Acquisition Date: 08/23/22 11:51:09 UTC
#
# ColumnLabels: energy counts/s
#
107  1025
106.9  993.125
106.8  996.25
106.7  997.5
106.6  1011.875
106.5  986.25
106.4  1025.625
106.3  978.75
106.2  993.125
106.1  979.375
106  1007.5
105.9  1011.875
105.8  1035
105.7  945.625
105.6  981.25
105.5  1014.375
105.4  993.125
105.3  970
105.2  988.75
105.1  1035
105  1026.875
104.9  1038.125
104.8  996.875
104.7  1015
104.6  998.125
104.5  1000
104.4  1008.75
104.3  1015
104.2  1031.25
104.1  1076.875
104  1048.125
103.9  1034.375
103.8  1053.75
103.7  987.5
103.6  967.5
103.5  1033.125
103.4  974.375
103.3  1045
103.2  1001.25
103.1  989.375
103  1040
102.9  1053.75
102.8  976.25
102.7  1070
102.6  1024.375
102.5  1048.75
102.4  1025.625
102.3  1004.375
102.2  985.625
102.1  971.25
102  1083.125
101.9  1008.75
101.8  1030
101.7  1048.75
101.6  1043.75
101.5  1024.375
101.4  1031.25
101.3  1041.875
101.2  1065.625
101.1  1061.25
101  994.375
100.9  1057.5
100.8  991.25
100.7  1032.5
100.6  996.875
100.5  1002.5
100.4  1005.625
100.3  1063.125
100.2  1056.25
100.1  993.75
100  1036.875

# Region:            Ba3d
# Acquisition Date:  08/23/22 11:52:48 UTC
# Analysis Method:   XPS
# Analyzer:          Phoibos 100 R6
# Analyzer Lens:     LargeArea:1.5kV
# Analyzer Slit:     1:0.2x20\B:open
# Scan Mode:         FixedAnalyzerTransmission
# Curves/Scan:       1
# Values/Curve:      121
# Dwell Time:        0.8
# Excitation Energy: 1486.61
# Binding Energy:    789
# Pass Energy:       30
# Bias Voltage:      90
# Detector Voltage:  2600
# Eff. Workfunction: 4.309
# Source:            X-Ray Dummy
# Comment:           
#
# Cycle: 0
# Number of Scans: 2
#
# Cycle: 0, Curve: 0
# Acquisition Date: 08/23/22 11:52:48 UTC
#
# ColumnLabels: energy counts/s
#
789  5301.25
788.9  5277.5
788.8  5298.125
788.7  5256.25
788.6  5275.625
788.5  5238.75
788.4  5373.75
788.3  5239.375
788.2  5263.125
788.1  5263.75
788  5337.5
787.9  5250
787.8  5351.875
787.7  5360
787.6  5310.625
787.5  5258.125
787.4  5320
787.3  5331.875
787.2  5346.25
787.1  5300.625
787  5290.625
786.9  5290.625
786.8  5311.25
786.7  5303.125
786.6  5276.25
786.5  5329.375
786.4  5265
786.3  5293.75
786.2  5257.5
786.1  5297.5
786  5326.25
785.9  5358.75
785.8  5287.5
785.7  5299.375
785.6  5298.125
785.5  5251.875
785.4  5196.25
785.3  5349.375
785.2  5255
785.1  5301.875
785  5196.25
784.9  5306.875
784.8  5309.375
784.7  5210
784.6  5308.75
784.5  5277.5
784.4  5340
784.3  5378.125
784.2  5361.875
784.1  5226.25
784  5293.125
783.9  5403.125
783.8  5223.75
783.7  5221.25
783.6  5241.25
783.5  5433.125
783.4  5289.375
783.3  5350.625
783.2  5296.25
783.1  5290
783  5341.875
782.9  5310
782.8  5230.625
782.7  5371.875
782.6  5281.25
782.5  5307.5
782.4  5312.5
782.3  5418.125
782.2  5316.875
782.1  5411.25
782  5367.5
781.9  5245.625
781.8  5364.375
781.7  5350.625
781.6  5238.125
781.5  5363.75
781.4  5388.125
781.3  5406.25
781.2  5390
781.1  5357.5
781  5353.75
780.9  5476.25
780.8  5441.25
780.7  5357.5
780.6  5270.625
780.5  5182.5
780.4  5377.5
780.3  5375
780.2  5328.125
780.1  5263.125
780  5315.625
779.9  5351.25
779.8  5299.375
779.7  5406.875
779.6  5276.875
779.5  5248.75
779.4  5219.375
779.3  5387.5
779.2  5358.75
779.1  5368.75
779  5236.25
778.9  5376.875
778.8  5256.25
778.7  5288.125
778.6  5278.75
778.5  5308.125
778.4  5288.75
778.3  5289.375
778.2  5236.25
778.1  5273.75
778  5388.75
777.9  5293.125
777.8  5301.25
777.7  5282.5
777.6  5284.375
777.5  5253.75
777.4  5413.125
777.3  5287.5
777.2  5245
777.1  5365.625
777  5205

# Region:            Cl2p
# Acquisition Date:  08/23/22 11:54:19 UTC
# Analysis Method:   XPS
# Analyzer:          Phoibos 100 R6
# Analyzer Lens:     LargeArea:1.5kV
# Analyzer Slit:     1:0.2x20\B:open
# Scan Mode:         FixedAnalyzerTransmission
# Curves/Scan:       1
# Values/Curve:      111
# Dwell Time:        0.8
# Excitation Energy: 1486.61
# Binding Energy:    207
# Pass Energy:       30
# Bias Voltage:      90
# Detector Voltage:  2600
# Eff. Workfunction: 4.309
# Source:            X-Ray Dummy
# Comment:           
#
# Cycle: 0
# Number of Scans: 2
#
# Cycle: 0, Curve: 0
# Acquisition Date: 08/23/22 11:54:19 UTC
#
# ColumnLabels: energy counts/s
#
207  990.625
206.9  949.375
206.8  962.5
206.7  965.625
206.6  896.25
206.5  956.875
206.4  951.25
206.3  961.875
206.2  950
206.1  993.75
206  978.125
205.9  927.5
205.8  981.25
205.7  956.25
205.6  943.125
205.5  966.25
205.4  1000
205.3  980.625
205.2  918.125
205.1  1005.625
205  981.25
204.9  980.625
204.8  973.125
204.7  956.875
204.6  939.375
204.5  938.125
204.4  941.875
204.3  971.25
204.2  986.25
204.1  920
204  904.375
203.9  973.75
203.8  978.75
203.7  941.25
203.6  935.625
203.5  974.375
203.4  932.5
203.3  954.375
203.2  966.875
203.1  944.375
203  972.5
202.9  972.5
202.8  1005.625
202.7  983.75
202.6  980
202.5  985
202.4  892.5
202.3  933.75
202.2  949.375
202.1  980
202  966.875
201.9  911.875
201.8  998.125
201.7  931.875
201.6  952.5
201.5  947.5
201.4  958.125
201.3  949.375
201.2  995.625
201.1  954.375
201  948.125
200.9  938.125
200.8  966.875
200.7  981.875
200.6  985.625
200.5  903.125
200.4  988.75
200.3  1031.875
200.2  977.5
200.1  970.625
200  976.25
199.9  956.25
199.8  957.5
199.7  1021.25
199.6  973.75
199.5  981.875
199.4  1009.375
199.3  973.125
199.2  981.875
199.1  991.25
199  936.875
198.9  1008.75
198.8  948.125
198.7  955.625
198.6  947.5
198.5  969.375
198.4  976.25
198.3  1000.625
198.2  956.875
198.1  969.375
198  957.5
197.9  996.25
197.8  960
197.7  938.125
197.6  970
197.5  948.125
197.4  952.5
197.3  1008.125
197.2  1013.75
197.1  988.125
197  1032.5
196.9  976.25
196.8  961.25
196.7  953.75
196.6  976.25
196.5  958.125
196.4  940.625
196.3  992.5
196.2  988.75
196.1  949.375
196  1771.875

