# Created by:        SpecsLab Prodigy, Version 4.60.2-r85849 
#
# XY-Serializer Export Settings:
#   Comment Prefix:           #
#   Output meta data:         yes
#   Energy Axis:              Binding Energy
#   Count Rate:               Counts per Second
#   Separate Scan Data:       no
#   Separate Channel Data:    no
#   External Channel Data:    yes
#   Transmission Function:    no
#   ErrorBar:                 no
#   Operation Results:        yes
#   Time Zone Format:         UTC
#
# Group:             Spectrum Group
#
# Region:            overview
# Acquisition Date:  08/23/22 17:07:13 UTC
# Analysis Method:   XPS
# Analyzer:          Phoibos 100 R6
# Analyzer Lens:     MediumArea:1.5kV
# Analyzer Slit:     1:0.2x20\B:open
# Scan Mode:         FixedAnalyzerTransmission
# Curves/Scan:       1
# Values/Curve:      1205
# Dwell Time:        0.2
# Excitation Energy: 1486.61
# Binding Energy:    1200
# Pass Energy:       50
# Bias Voltage:      90
# Detector Voltage:  2600
# Eff. Workfunction: 4.309
# Source:            X-Ray Dummy
# Comment:           
#
# Cycle: 0
# Number of Scans: 1
#
# Cycle: 0, Curve: 0
# Acquisition Date: 08/23/22 17:07:13 UTC
#
# ColumnLabels: energy counts/s
#
1200  10310
1199  10120
1198  10220
1197  10630
1196  9460
1195  10215
1194  10415
1193  10390
1192  10195
1191  10440
1190  10185
1189  9980
1188  10090
1187  9735
1186  10180
1185  9830
1184  9540
1183  9450
1182  9585
1181  9520
1180  9285
1179  9200
1178  9320
1177  9405
1176  9565
1175  9110
1174  9250
1173  9420
1172  9050
1171  9260
1170  9190
1169  9005
1168  9185
1167  8975
1166  9220
1165  9255
1164  9230
1163  8860
1162  8855
1161  9310
1160  9665
1159  9080
1158  9155
1157  9365
1156  8970
1155  8615
1154  8955
1153  8990
1152  8690
1151  8840
1150  8860
1149  8690
1148  8755
1147  8845
1146  8975
1145  8795
1144  8435
1143  8345
1142  8730
1141  8130
1140  8085
1139  8115
1138  8155
1137  8065
1136  7820
1135  7865
1134  7880
1133  7270
1132  7565
1131  7490
1130  7315
1129  7305
1128  7485
1127  7405
1126  7225
1125  7515
1124  7335
1123  7240
1122  7235
1121  7140
1120  7525
1119  7060
1118  7510
1117  7215
1116  7140
1115  7115
1114  7200
1113  6980
1112  7625
1111  6910
1110  7240
1109  7075
1108  7140
1107  7050
1106  7110
1105  7100
1104  7010
1103  7025
1102  6985
1101  7110
1100  6840
1099  7210
1098  7020
1097  7075
1096  7080
1095  7170
1094  7145
1093  6875
1092  7240
1091  7310
1090  7920
1089  8980
1088  9235
1087  9975
1086  9340
1085  9375
1084  8375
1083  7475
1082  7835
1081  8120
1080  8015
1079  7835
1078  7020
1077  6410
1076  5990
1075  5805
1074  5615
1073  5145
1072  5450
1071  5230
1070  5555
1069  5160
1068  5175
1067  5615
1066  5450
1065  5500
1064  5495
1063  5500
1062  5150
1061  5295
1060  5290
1059  5330
1058  4960
1057  4945
1056  5015
1055  4990
1054  4750
1053  5005
1052  5220
1051  4795
1050  4730
1049  4815
1048  5070
1047  5000
1046  4860
1045  4935
1044  4690
1043  4725
1042  4665
1041  4985
1040  4535
1039  4580
1038  4740
1037  4540
1036  4715
1035  4935
1034  4590
1033  4795
1032  4590
1031  4895
1030  4695
1029  4170
1028  4745
1027  4620
1026  5200
1025  4700
1024  4400
1023  4925
1022  4485
1021  4595
1020  4555
1019  4700
1018  4645
1017  4670
1016  4905
1015  4365
1014  4630
1013  5035
1012  4705
1011  4875
1010  4590
1009  4705
1008  4650
1007  4900
1006  4905
1005  4595
1004  4655
1003  4430
1002  4675
1001  4840
1000  4645
999  4875
998  5065
997  4975
996  4655
995  5145
994  5020
993  4980
992  4960
991  5025
990  4705
989  4920
988  4625
987  4430
986  4665
985  4825
984  4635
983  4620
982  4620
981  4800
980  4745
979  4670
978  5095
977  5290
976  5490
975  5465
974  5610
973  5510
972  5310
971  5040
970  5080
969  4435
968  4705
967  4290
966  4315
965  4215
964  4260
963  4510
962  4050
961  4035
960  3955
959  4185
958  3840
957  4085
956  4380
955  4150
954  4025
953  4300
952  3895
951  4275
950  4175
949  4310
948  4235
947  4320
946  3910
945  4045
944  4180
943  4220
942  3965
941  4180
940  4075
939  3945
938  4225
937  4170
936  4200
935  4120
934  4355
933  4135
932  4360
931  4180
930  4155
929  4070
928  4120
927  4280
926  4395
925  4365
924  4095
923  4265
922  4285
921  4320
920  3950
919  4260
918  4170
917  4335
916  3955
915  4480
914  3820
913  3965
912  4390
911  4365
910  4270
909  4470
908  4170
907  4035
906  4390
905  4210
904  4055
903  3930
902  4260
901  4370
900  3920
899  4045
898  4010
897  3975
896  4370
895  4170
894  4370
893  4260
892  4220
891  4195
890  4415
889  4190
888  4200
887  4305
886  4280
885  4220
884  4320
883  4095
882  4275
881  4345
880  4200
879  4660
878  4265
877  4180
876  4410
875  4365
874  4365
873  4305
872  4035
871  4265
870  4170
869  4295
868  4040
867  4325
866  4350
865  4680
864  3990
863  4465
862  4335
861  4325
860  4340
859  4225
858  4045
857  4410
856  3960
855  4495
854  4175
853  4280
852  4520
851  4395
850  4435
849  4190
848  4665
847  4445
846  4300
845  4585
844  4220
843  4270
842  4340
841  4160
840  4185
839  4370
838  4305
837  4265
836  4590
835  4475
834  4590
833  4615
832  4425
831  4720
830  4690
829  4445
828  4955
827  4585
826  4705
825  4970
824  4345
823  4295
822  4505
821  4295
820  4500
819  4510
818  4430
817  4305
816  4225
815  4310
814  4400
813  4675
812  4480
811  4475
810  4270
809  4530
808  4245
807  4250
806  4100
805  4130
804  4535
803  4270
802  4385
801  4255
800  4130
799  4580
798  4365
797  4580
796  4270
795  4405
794  4510
793  4415
792  4295
791  4270
790  4335
789  4425
788  4495
787  4375
786  4385
785  4275
784  4435
783  4325
782  4395
781  4410
780  4680
779  4710
778  4365
777  4355
776  4725
775  4105
774  4510
773  4505
772  4370
771  4520
770  4360
769  4395
768  4610
767  4565
766  4680
765  4520
764  4760
763  4675
762  4495
761  4385
760  4550
759  4715
758  4720
757  4750
756  4790
755  4500
754  4610
753  4840
752  4570
751  4665
750  4660
749  4615
748  4390
747  4430
746  4150
745  4550
744  4525
743  4310
742  4575
741  4770
740  4700
739  4450
738  4610
737  4595
736  4770
735  4675
734  4620
733  4830
732  4350
731  4620
730  4595
729  4765
728  4790
727  4620
726  5045
725  4635
724  4560
723  4715
722  4800
721  5030
720  4865
719  4790
718  5135
717  4740
716  5280
715  4820
714  4955
713  4955
712  4610
711  4650
710  4830
709  4630
708  4925
707  5535
706  5400
705  6215
704  6260
703  6040
702  5710
701  5205
700  4815
699  4695
698  4615
697  4760
696  4470
695  4615
694  5000
693  4625
692  4775
691  4940
690  4750
689  4785
688  4535
687  4680
686  4675
685  4845
684  4600
683  4715
682  4785
681  4430
680  4640
679  4940
678  4510
677  4655
676  4600
675  4420
674  4215
673  4670
672  4460
671  4890
670  4810
669  5435
668  6550
667  7130
666  8130
665  7345
664  6115
663  5500
662  4675
661  4655
660  4265
659  4375
658  4395
657  4520
656  4280
655  4595
654  4425
653  4100
652  4035
651  3960
650  3780
649  3865
648  3760
647  4165
646  4245
645  3825
644  3860
643  3805
642  4135
641  3875
640  3690
639  3770
638  3905
637  3970
636  4130
635  4015
634  3825
633  3910
632  3835
631  4010
630  3945
629  4040
628  3800
627  3930
626  3805
625  4025
624  4085
623  3980
622  3985
621  3740
620  4065
619  3805
618  4220
617  3985
616  4170
615  3960
614  3945
613  3845
612  4220
611  3935
610  3720
609  4150
608  3955
607  4120
606  4105
605  4145
604  4270
603  4245
602  4080
601  4305
600  4020
599  4135
598  4390
597  4675
596  4190
595  4185
594  4130
593  3890
592  3985
591  3920
590  4320
589  4120
588  4260
587  4145
586  4075
585  4295
584  4230
583  4175
582  4155
581  4430
580  4260
579  4280
578  4465
577  4235
576  4150
575  4235
574  4500
573  4365
572  3935
571  4280
570  4265
569  4215
568  4280
567  4255
566  4280
565  4360
564  4590
563  4215
562  4315
561  4430
560  4365
559  4300
558  4365
557  4515
556  4530
555  4475
554  4645
553  4510
552  4695
551  4435
550  4615
549  4505
548  4515
547  4770
546  4420
545  4645
544  4720
543  4355
542  4255
541  4515
540  4615
539  4365
538  4450
537  4225
536  4280
535  4200
534  4500
533  4985
532  6435
531  7545
530  8030
529  6225
528  4685
527  4065
526  4090
525  4215
524  4140
523  4225
522  4330
521  4540
520  4205
519  4280
518  4130
517  4165
516  4320
515  4200
514  4340
513  4380
512  4145
511  4350
510  4360
509  4365
508  4180
507  4140
506  4210
505  4090
504  4095
503  4030
502  4290
501  4170
500  4255
499  4155
498  4320
497  4290
496  4865
495  4940
494  4220
493  4460
492  4020
491  4065
490  4110
489  4475
488  4650
487  5385
486  4825
485  4150
484  4110
483  4275
482  4120
481  4010
480  4270
479  4220
478  4405
477  4215
476  4300
475  4025
474  4595
473  4880
472  4550
471  4765
470  4280
469  4600
468  4380
467  4250
466  4320
465  4300
464  4080
463  4450
462  4330
461  3800
460  3690
459  3875
458  3635
457  3650
456  3910
455  4135
454  6490
453  12010
452  14255
451  8540
450  4000
449  3140
448  3230
447  5370
446  10995
445  18540
444  15470
443  7575
442  3630
441  2975
440  2420
439  2100
438  1925
437  1690
436  2370
435  2910
434  2700
433  2335
432  1880
431  1650
430  1535
429  1410
428  1340
427  1575
426  1565
425  1520
424  1470
423  1380
422  1510
421  1335
420  1630
419  1235
418  1415
417  1460
416  1305
415  1430
414  1300
413  1400
412  1355
411  1250
410  1510
409  1410
408  1460
407  1400
406  1375
405  1395
404  1280
403  1300
402  1300
401  1330
400  1425
399  1425
398  1440
397  1330
396  1285
395  1385
394  1380
393  1325
392  1455
391  1545
390  1400
389  1345
388  1295
387  1435
386  1550
385  1475
384  1430
383  1540
382  1460
381  1315
380  1535
379  1580
378  1415
377  1490
376  1405
375  1535
374  1555
373  1620
372  1325
371  1350
370  1380
369  1245
368  1200
367  1185
366  1290
365  1260
364  1350
363  1285
362  1235
361  1115
360  1150
359  1275
358  1305
357  1330
356  1365
355  1250
354  1145
353  1025
352  1265
351  1405
350  1215
349  1275
348  1250
347  1295
346  1405
345  1325
344  1265
343  1280
342  1245
341  1160
340  1285
339  1330
338  1320
337  1285
336  1365
335  1225
334  1375
333  1255
332  1320
331  1280
330  1250
329  1115
328  1325
327  1325
326  1265
325  1370
324  1325
323  1265
322  1285
321  1385
320  1295
319  1370
318  1385
317  1360
316  1380
315  1340
314  1305
313  1410
312  1450
311  1195
310  1175
309  1370
308  1325
307  1270
306  1250
305  1360
304  1400
303  1275
302  1220
301  1405
300  1320
299  1185
298  1390
297  1325
296  1410
295  1280
294  1495
293  1315
292  1280
291  1450
290  1340
289  1260
288  1390
287  1630
286  1555
285  1480
284  1425
283  1355
282  1285
281  1410
280  1275
279  1460
278  1410
277  1245
276  1400
275  1395
274  1290
273  1345
272  1395
271  1370
270  1340
269  1385
268  1285
267  1450
266  1340
265  1450
264  1450
263  1235
262  1220
261  1315
260  1200
259  1500
258  1320
257  1355
256  1295
255  1395
254  1355
253  1340
252  1405
251  1425
250  1400
249  1395
248  1250
247  1350
246  1540
245  1580
244  1375
243  1450
242  1440
241  1400
240  1315
239  1350
238  1195
237  1350
236  1550
235  1380
234  1370
233  1360
232  1440
231  1330
230  1345
229  1410
228  1510
227  1410
226  1240
225  1425
224  1365
223  1325
222  1385
221  1290
220  1350
219  1330
218  1345
217  1415
216  1395
215  1390
214  1355
213  1370
212  1485
211  1380
210  1350
209  1485
208  1385
207  1365
206  1535
205  1435
204  1375
203  1415
202  1345
201  1460
200  1435
199  1530
198  1460
197  1315
196  1325
195  1405
194  1595
193  1415
192  1600
191  1435
190  1425
189  1540
188  1390
187  1445
186  1245
185  1385
184  1350
183  1375
182  1445
181  1450
180  1470
179  1470
178  1340
177  1410
176  1570
175  1420
174  1510
173  1485
172  1610
171  1480
170  1290
169  1415
168  1365
167  1335
166  1425
165  1525
164  1425
163  1320
162  1620
161  1375
160  1545
159  1705
158  1660
157  1495
156  1410
155  1485
154  1490
153  1445
152  1530
151  1625
150  1520
149  1455
148  1435
147  1625
146  1410
145  1450
144  1425
143  1540
142  1550
141  1460
140  1535
139  1450
138  1575
137  1510
136  1475
135  1555
134  1495
133  1600
132  1470
131  1515
130  1530
129  1455
128  1615
127  1585
126  1905
125  1795
124  1670
123  1495
122  1750
121  1675
120  1440
119  1625
118  1420
117  1460
116  1405
115  1600
114  1520
113  1370
112  1485
111  1550
110  1535
109  1545
108  1365
107  1385
106  1415
105  1480
104  1430
103  1665
102  1470
101  1605
100  1475
99  1555
98  1655
97  1595
96  1440
95  1545
94  1500
93  1595
92  1525
91  1590
90  1560
89  1575
88  1715
87  1605
86  1660
85  1685
84  1745
83  1640
82  1690
81  1780
80  1790
79  1945
78  1705
77  1660
76  1660
75  1765
74  1505
73  1500
72  1555
71  1400
70  1375
69  1180
68  1165
67  1395
66  1240
65  1250
64  1265
63  1170
62  1155
61  1015
60  1215
59  1160
58  1065
57  1165
56  1225
55  1150
54  1210
53  1160
52  1255
51  1180
50  1105
49  1095
48  1130
47  1115
46  1045
45  1105
44  1145
43  1095
42  1215
41  1215
40  1200
39  990
38  1095
37  1145
36  1200
35  1030
34  960
33  1120
32  1125
31  1120
30  1080
29  1160
28  1325
27  1305
26  1295
25  1250
24  1085
23  1230
22  1195
21  1435
20  2250
19  3710
18  4190
17  2645
16  1425
15  885
14  680
13  730
12  840
11  915
10  905
9  1030
8  1190
7  1010
6  985
5  990
4  760
3  825
2  710
1  760
-2.2737368e-013  500
-1  720
-2  820
-3  690
-4  570

# Region:            C1s
# Acquisition Date:  08/24/22 00:59:48 UTC
# Analysis Method:   XPS
# Analyzer:          Phoibos 100 R6
# Analyzer Lens:     LargeArea:1.5kV
# Analyzer Slit:     1:0.2x20\B:open
# Scan Mode:         FixedAnalyzerTransmission
# Curves/Scan:       1
# Values/Curve:      151
# Dwell Time:        0.8
# Excitation Energy: 1486.61
# Binding Energy:    295
# Pass Energy:       30
# Bias Voltage:      90
# Detector Voltage:  2600
# Eff. Workfunction: 4.309
# Source:            X-Ray Dummy
# Comment:           
#
# Cycle: 0
# Number of Scans: 50
#
# Cycle: 0, Curve: 0
# Acquisition Date: 08/24/22 00:59:48 UTC
#
# ColumnLabels: energy counts/s
#
295  969.675
294.9  975.65
294.8  975.575
294.7  967
294.6  966.625
294.5  976.625
294.4  966.9
294.3  965
294.2  975.35
294.1  970.45
294  975.925
293.9  983.3
293.8  972.35
293.7  963.325
293.6  967.375
293.5  980.375
293.4  961.25
293.3  972.975
293.2  984.875
293.1  963.175
293  966.175
292.9  981.95
292.8  978.975
292.7  966
292.6  964.575
292.5  971.575
292.4  971.575
292.3  972.875
292.2  962.05
292.1  972.45
292  972.325
291.9  975.775
291.8  971.9
291.7  965.625
291.6  978.45
291.5  968.525
291.4  981.675
291.3  965.175
291.2  976.15
291.1  970.95
291  970.725
290.9  974.65
290.8  973.825
290.7  969.05
290.6  973.15
290.5  988.925
290.4  973.7
290.3  978.575
290.2  975.425
290.1  979.7
290  977.975
289.9  981.6
289.8  982.075
289.7  983.475
289.6  992.175
289.5  989.675
289.4  993.375
289.3  993.9
289.2  996.275
289.1  994.375
289  1005.05
288.9  1003.55
288.8  1007.975
288.7  1012.425
288.6  1018.325
288.5  1015
288.4  1024.4
288.3  1030.4
288.2  1036
288.1  1031.55
288  1042.425
287.9  1047.475
287.8  1054.3
287.7  1058.4
287.6  1065.375
287.5  1083.4
287.4  1085.55
287.3  1100.8
287.2  1079.275
287.1  1102.5
287  1098.8
286.9  1117.05
286.8  1114.05
286.7  1118.675
286.6  1116.5
286.5  1118.075
286.4  1122.85
286.3  1114.125
286.2  1110.45
286.1  1111.925
286  1123.9
285.9  1105.7
285.8  1103.25
285.7  1104.45
285.6  1098.5
285.5  1098.875
285.4  1091.7
285.3  1079.5
285.2  1081.325
285.1  1069.275
285  1075.625
284.9  1065.175
284.8  1062.15
284.7  1054.725
284.6  1053.15
284.5  1033.825
284.4  1038.05
284.3  1025.65
284.2  1020.625
284.1  1006.65
284  1014.475
283.9  1008.25
283.8  995.875
283.7  986.925
283.6  987.875
283.5  977.875
283.4  978.65
283.3  989.225
283.2  983.575
283.1  973.875
283  970.35
282.9  968.775
282.8  972.8
282.7  953.625
282.6  968.025
282.5  967.325
282.4  962.025
282.3  968.525
282.2  963.1
282.1  971.4
282  964.7
281.9  971.45
281.8  965.65
281.7  967.975
281.6  966.6
281.5  966.6
281.4  959.475
281.3  970.55
281.2  961.975
281.1  967.175
281  957.45
280.9  966.85
280.8  964.95
280.7  962.1
280.6  963.375
280.5  963.525
280.4  966.4
280.3  964.05
280.2  968.45
280.1  959.125
280  967.375

# Region:            N1s
# Acquisition Date:  08/24/22 02:45:54 UTC
# Analysis Method:   XPS
# Analyzer:          Phoibos 100 R6
# Analyzer Lens:     LargeArea:1.5kV
# Analyzer Slit:     1:0.2x20\B:open
# Scan Mode:         FixedAnalyzerTransmission
# Curves/Scan:       1
# Values/Curve:      121
# Dwell Time:        0.8
# Excitation Energy: 1486.61
# Binding Energy:    409
# Pass Energy:       30
# Bias Voltage:      90
# Detector Voltage:  2600
# Eff. Workfunction: 4.309
# Source:            X-Ray Dummy
# Comment:           
#
# Cycle: 0
# Number of Scans: 90
#
# Cycle: 0, Curve: 0
# Acquisition Date: 08/24/22 02:45:54 UTC
#
# ColumnLabels: energy counts/s
#
409  1075.9722
408.9  1079.2083
408.8  1072.1667
408.7  1085.7778
408.6  1087.1528
408.5  1084.0139
408.4  1086.1806
408.3  1086.6667
408.2  1079.25
408.1  1083.1944
408  1087.9722
407.9  1087.1111
407.8  1085.5833
407.7  1084.7083
407.6  1079.5694
407.5  1082.3194
407.4  1086.375
407.3  1088.0139
407.2  1089.0556
407.1  1087.1528
407  1082.75
406.9  1092.8472
406.8  1089.2361
406.7  1080.3194
406.6  1082.7361
406.5  1081.9028
406.4  1078.9861
406.3  1073.2778
406.2  1074.2917
406.1  1074.4722
406  1076.5139
405.9  1075.5417
405.8  1065.1806
405.7  1075.9583
405.6  1077.0556
405.5  1081.3889
405.4  1075.6667
405.3  1082.0139
405.2  1072.4306
405.1  1079.0833
405  1071.8333
404.9  1075.25
404.8  1076.0278
404.7  1076.9722
404.6  1072.3056
404.5  1080.6667
404.4  1072.2778
404.3  1076.8056
404.2  1080.1944
404.1  1073.2083
404  1076.8333
403.9  1072.8472
403.8  1080.9722
403.7  1086.2361
403.6  1080.3056
403.5  1077.1111
403.4  1081.7778
403.3  1077.1111
403.2  1082.5417
403.1  1083.1944
403  1078.2083
402.9  1087.4167
402.8  1084.7361
402.7  1086.3056
402.6  1088.6528
402.5  1089.7083
402.4  1086.5833
402.3  1089.0972
402.2  1095.3611
402.1  1094.4167
402  1094.2778
401.9  1098.6667
401.8  1091.6806
401.7  1095.3194
401.6  1092.4861
401.5  1095.5139
401.4  1098.0139
401.3  1099.7083
401.2  1088.125
401.1  1096.9861
401  1098.4306
400.9  1098.1944
400.8  1102.9028
400.7  1094.75
400.6  1090.1806
400.5  1094.9444
400.4  1097.7917
400.3  1093.5556
400.2  1094.3472
400.1  1099.7222
400  1091.2917
399.9  1084.2639
399.8  1087.7083
399.7  1091.1528
399.6  1094.3333
399.5  1081.8611
399.4  1088.4722
399.3  1082.9583
399.2  1088.8611
399.1  1078.9167
399  1081.4583
398.9  1084.6528
398.8  1080.4306
398.7  1073.1389
398.6  1079.0833
398.5  1076.2917
398.4  1067.7222
398.3  1076.25
398.2  1062.9028
398.1  1070.1944
398  1067.4167
397.9  1068.5833
397.8  1063.8056
397.7  1072.0278
397.6  1062.3889
397.5  1068.0694
397.4  1068.5972
397.3  1065.5556
397.2  1066.9028
397.1  1062.1528
397  1064.9028

# Region:            O1s
# Acquisition Date:  08/23/22 23:49:14 UTC
# Analysis Method:   XPS
# Analyzer:          Phoibos 100 R6
# Analyzer Lens:     LargeArea:1.5kV
# Analyzer Slit:     1:0.2x20\B:open
# Scan Mode:         FixedAnalyzerTransmission
# Curves/Scan:       1
# Values/Curve:      141
# Dwell Time:        0.8
# Excitation Energy: 1486.61
# Binding Energy:    541
# Pass Energy:       30
# Bias Voltage:      90
# Detector Voltage:  2600
# Eff. Workfunction: 4.309
# Source:            X-Ray Dummy
# Comment:           
#
# Cycle: 0
# Number of Scans: 40
#
# Cycle: 0, Curve: 0
# Acquisition Date: 08/23/22 23:49:14 UTC
#
# ColumnLabels: energy counts/s
#
541  3778.625
540.9  3742.75
540.8  3763.75
540.7  3740.125
540.6  3754.4688
540.5  3754.4375
540.4  3744.6875
540.3  3731.4063
540.2  3760.1875
540.1  3756.4375
540  3717.8125
539.9  3740.5313
539.8  3743.5625
539.7  3725.4375
539.6  3743.0938
539.5  3746.6563
539.4  3738.4375
539.3  3728.875
539.2  3729.5938
539.1  3712.6875
539  3731.5313
538.9  3718.5938
538.8  3726.1563
538.7  3719.875
538.6  3704.9688
538.5  3713.9063
538.4  3709.4063
538.3  3715.2188
538.2  3695.25
538.1  3718.0625
538  3704.8438
537.9  3697.6563
537.8  3697.8438
537.7  3697.5938
537.6  3687.6875
537.5  3684.7188
537.4  3687.0625
537.3  3716.4688
537.2  3700.8438
537.1  3671.0938
537  3698.1875
536.9  3691.7188
536.8  3691.8125
536.7  3696.1875
536.6  3687.1563
536.5  3684.5
536.4  3681.5313
536.3  3679.4688
536.2  3698.6563
536.1  3674.6563
536  3666.9063
535.9  3684.4688
535.8  3697.4688
535.7  3684.9688
535.6  3695.4375
535.5  3714.1563
535.4  3712.0938
535.3  3698.375
535.2  3712.7813
535.1  3745.5
535  3764.3438
534.9  3772.5625
534.8  3780.0625
534.7  3775.7813
534.6  3822.3438
534.5  3861.3438
534.4  3858.1563
534.3  3923.625
534.2  3923.375
534.1  3966.25
534  4003.0625
533.9  4034.2813
533.8  4089.7813
533.7  4140.25
533.6  4181.875
533.5  4278.625
533.4  4314.125
533.3  4369.4063
533.2  4416
533.1  4519.9375
533  4594.8438
532.9  4682.4063
532.8  4720.5938
532.7  4829.4063
532.6  4908.7813
532.5  5012.5
532.4  5118.4063
532.3  5210.0625
532.2  5318.875
532.1  5468.0938
532  5589.5625
531.9  5750.9375
531.8  5875.1563
531.7  6066.8125
531.6  6223.625
531.5  6395.25
531.4  6560.5
531.3  6742.375
531.2  6911.75
531.1  7046
531  7233
530.9  7327.625
530.8  7431.2813
530.7  7519.5625
530.6  7520.5
530.5  7521.0938
530.4  7481.7813
530.3  7382.1563
530.2  7209.4375
530.1  7048.6875
530  6821.125
529.9  6624
529.8  6331.1875
529.7  6079.2188
529.6  5812.875
529.5  5532.0313
529.4  5306.2813
529.3  5065.0313
529.2  4858
529.1  4630.3125
529  4469.3438
528.9  4322.7188
528.8  4165.7188
528.7  4075.8438
528.6  3985.4375
528.5  3923.75
528.4  3856.125
528.3  3808.3125
528.2  3763.0938
528.1  3715.0625
528  3682.8125
527.9  3666.5313
527.8  3657.5625
527.7  3653.5625
527.6  3608.3125
527.5  3607.5938
527.4  3602.5938
527.3  3614.8125
527.2  3580.0313
527.1  3568.5
527  3591.5313

# Region:            Si2p
# Acquisition Date:  08/24/22 01:56:44 UTC
# Analysis Method:   XPS
# Analyzer:          Phoibos 100 R6
# Analyzer Lens:     LargeArea:1.5kV
# Analyzer Slit:     1:0.2x20\B:open
# Scan Mode:         FixedAnalyzerTransmission
# Curves/Scan:       1
# Values/Curve:      261
# Dwell Time:        0.8
# Excitation Energy: 1486.61
# Binding Energy:    115
# Pass Energy:       30
# Bias Voltage:      90
# Detector Voltage:  2600
# Eff. Workfunction: 4.309
# Source:            X-Ray Dummy
# Comment:           
#
# Cycle: 0
# Number of Scans: 59
#
# Cycle: 0, Curve: 0
# Acquisition Date: 08/24/22 01:56:44 UTC
#
# ColumnLabels: energy counts/s
#
115  971.25
114.9  969.02542
114.8  975.14831
114.7  971.50424
114.6  973.38983
114.5  978.4322
114.4  975.40254
114.3  974.13136
114.2  971.94915
114.1  973.24153
114  977.88136
113.9  972.88136
113.8  980.84746
113.7  978.91949
113.6  975.55085
113.5  987.62712
113.4  976.80085
113.3  975.29661
113.2  970.57203
113.1  973.38983
113  981.16525
112.9  972.35169
112.8  979.61864
112.7  977.41525
112.6  972.79661
112.5  976.86441
112.4  976.73729
112.3  968.02966
112.2  972.56356
112.1  982.05508
112  971.84322
111.9  965.65678
111.8  976.03814
111.7  971.75847
111.6  974.0678
111.5  983.79237
111.4  976.52542
111.3  965.3178
111.2  975.06356
111.1  977.22458
111  969.2161
110.9  969.40678
110.8  982.30932
110.7  965.84746
110.6  969.5339
110.5  978.66525
110.4  969.85169
110.3  965
110.2  969.93644
110.1  968.70763
110  964.32203
109.9  969.55508
109.8  970.69915
109.7  974.87288
109.6  966.20763
109.5  958.32627
109.4  972.07627
109.3  965.57203
109.2  969.32203
109.1  963.24153
109  975.16949
108.9  965.48729
108.8  974.42797
108.7  964.19492
108.6  965
108.5  970.88983
108.4  966.58898
108.3  965.04237
108.2  970.44492
108.1  974.40678
108  962.5
107.9  982.52119
107.8  973.4322
107.7  966.54661
107.6  975.52966
107.5  975.38136
107.4  970.21186
107.3  972.66949
107.2  967.75424
107.1  966.10169
107  978.24153
106.9  975.42373
106.8  976.12288
106.7  971.33475
106.6  976.77966
106.5  976.14407
106.4  969.00424
106.3  968.26271
106.2  973.32627
106.1  977.9661
106  978.19915
105.9  966.41949
105.8  967.71186
105.7  983.34746
105.6  976.94915
105.5  976.90678
105.4  976.22881
105.3  989.93644
105.2  977.47881
105.1  974.08898
105  987.92373
104.9  981.5678
104.8  988.02966
104.7  987.35169
104.6  982.1822
104.5  991.16525
104.4  981.63136
104.3  984.15254
104.2  981.37712
104.1  978.85593
104  991.05932
103.9  984.40678
103.8  994.38559
103.7  985.48729
103.6  1002.0975
103.5  987.37288
103.4  987.69068
103.3  981.86441
103.2  984.00424
103.1  989.32203
103  987.45763
102.9  988.22034
102.8  986.5678
102.7  993.11441
102.6  990.33898
102.5  993.36864
102.4  987.30932
102.3  983.45339
102.2  986.69492
102.1  992.05508
102  981.12288
101.9  990.80508
101.8  990.33898
101.7  987.33051
101.6  988.30508
101.5  980.55085
101.4  989.11017
101.3  990.08475
101.2  991.35593
101.1  983.72881
101  994.95763
100.9  992.24576
100.8  985.76271
100.7  984.08898
100.6  991.05932
100.5  997.75424
100.4  989.08898
100.3  988.22034
100.2  990.42373
100.1  986.10169
100  989.40678
99.9  996.77966
99.8  996.50424
99.7  1009.2797
99.6  991.90678
99.5  1002.9661
99.4  989.59746
99.3  999.38559
99.2  997.77542
99.1  1001.7373
99  999.78814
98.9  989.13136
98.8  996.08051
98.7  1008.8771
98.6  1002.4364
98.5  995.67797
98.4  1002.0763
98.3  998.87712
98.2  1009.5551
98.1  1000
98  1006.2712
97.9  1004.9153
97.8  1009.3856
97.7  1006.4619
97.6  1008.5381
97.5  1009.7669
97.4  1006.9068
97.3  1013.2415
97.2  1011.0593
97.1  1014.5763
97  1012.6907
96.9  1015.9746
96.8  1015.7627
96.7  1015.8898
96.6  1012.5
96.5  1030
96.4  1013.0508
96.3  1010.911
96.2  1019.2585
96.1  1014.4703
96  1017.9873
95.9  1012.161
95.8  1025.8898
95.7  1019.4492
95.6  1016.6949
95.5  1021.0169
95.4  1018.9619
95.3  1022.0551
95.2  1019.8941
95.1  1027.1186
95  1017.4364
94.9  1010.4449
94.8  1009.9576
94.7  1016.1864
94.6  1015.678
94.5  1027.839
94.4  1016.6314
94.3  1017.9237
94.2  1017.9661
94.1  1027.2669
94  1022.7542
93.9  1019.661
93.8  1038.1992
93.7  1021.0169
93.6  1024.2585
93.5  1022.7331
93.4  1025.3814
93.3  1029.0042
93.2  1039.7246
93.1  1033.072
93  1027.4364
92.9  1021.0805
92.8  1031.3136
92.7  1027.9449
92.6  1027.6907
92.5  1028.8983
92.4  1027.4364
92.3  1034.1737
92.2  1033.3051
92.1  1034.5763
92  1043.1568
91.9  1026.25
91.8  1042.0551
91.7  1043.1992
91.6  1029.8941
91.5  1044.8093
91.4  1048.8136
91.3  1058.178
91.2  1048.1568
91.1  1041.6102
91  1047.9661
90.9  1043.0932
90.8  1056.6102
90.7  1048.9619
90.6  1047.1822
90.5  1047.2669
90.4  1052.6695
90.3  1051.8644
90.2  1059.1525
90.1  1053.4534
90  1062.5424
89.9  1054.4492
89.8  1061.0169
89.7  1061.2924
89.6  1061.4407
89.5  1071.0381
89.4  1061.8644
89.3  1063.411
89.2  1070.572
89.1  1066.6949
89  1073.1992

# Region:            In3d
# Acquisition Date:  08/23/22 17:25:20 UTC
# Analysis Method:   XPS
# Analyzer:          Phoibos 100 R6
# Analyzer Lens:     LargeArea:1.5kV
# Analyzer Slit:     1:0.2x20\B:open
# Scan Mode:         FixedAnalyzerTransmission
# Curves/Scan:       1
# Values/Curve:      231
# Dwell Time:        0.8
# Excitation Energy: 1486.61
# Binding Energy:    460
# Pass Energy:       30
# Bias Voltage:      90
# Detector Voltage:  2600
# Eff. Workfunction: 4.309
# Source:            X-Ray Dummy
# Comment:           
#
# Cycle: 0
# Number of Scans: 1
#
# Cycle: 0, Curve: 0
# Acquisition Date: 08/23/22 17:25:20 UTC
#
# ColumnLabels: energy counts/s
#
460  3258.75
459.9  3168.75
459.8  3087.5
459.7  3101.25
459.6  3056.25
459.5  3115
459.4  3112.5
459.3  3110
459.2  3090
459.1  3028.75
459  2996.25
458.9  3057.5
458.8  2915
458.7  3150
458.6  3016.25
458.5  2921.25
458.4  2891.25
458.3  2972.5
458.2  3022.5
458.1  3091.25
458  2991.25
457.9  2930
457.8  3057.5
457.7  3042.5
457.6  2957.5
457.5  3047.5
457.4  2897.5
457.3  2873.75
457.2  2982.5
457.1  3047.5
457  2890
456.9  2966.25
456.8  2956.25
456.7  2970
456.6  2981.25
456.5  2977.5
456.4  3007.5
456.3  3070
456.2  3036.25
456.1  2967.5
456  3072.5
455.9  3033.75
455.8  3070
455.7  3120
455.6  3205
455.5  3220
455.4  3333.75
455.3  3395
455.2  3463.75
455.1  3498.75
455  3778.75
454.9  3680
454.8  3882.5
454.7  4001.25
454.6  4235
454.5  4317.5
454.4  4476.25
454.3  4792.5
454.2  4943.75
454.1  5262.5
454  5743.75
453.9  6028.75
453.8  6467.5
453.7  6965
453.6  7463.75
453.5  8137.5
453.4  8536.25
453.3  9126.25
453.2  9718.75
453.1  10242.5
453  10772.5
452.9  11381.25
452.8  11937.5
452.7  12266.25
452.6  12478.75
452.5  12585
452.4  12458.75
452.3  12642.5
452.2  12548.75
452.1  12181.25
452  11913.75
451.9  11181.25
451.8  10486.25
451.7  9701.25
451.6  9172.5
451.5  8211.25
451.4  7447.5
451.3  6772.5
451.2  6316.25
451.1  5642.5
451  4956.25
450.9  4596.25
450.8  4321.25
450.7  3845
450.6  3652.5
450.5  3433.75
450.4  3223.75
450.3  3001.25
450.2  2887.5
450.1  2833.75
450  2685
449.9  2656.25
449.8  2640
449.7  2517.5
449.6  2435
449.5  2450
449.4  2422.5
449.3  2425
449.2  2471.25
449.1  2438.75
449  2427.5
448.9  2420
448.8  2458.75
448.7  2470
448.6  2512.5
448.5  2597.5
448.4  2568.75
448.3  2512.5
448.2  2685
448.1  2755
448  2803.75
447.9  2876.25
447.8  2908.75
447.7  3146.25
447.6  3241.25
447.5  3228.75
447.4  3421.25
447.3  3705
447.2  3943.75
447.1  4096.25
447  4477.5
446.9  4692.5
446.8  5120
446.7  5358.75
446.6  5772.5
446.5  6350
446.4  6856.25
446.3  7607.5
446.2  8075
446.1  8873.75
446  9543.75
445.9  10306.25
445.8  11145
445.7  11812.5
445.6  12826.25
445.5  13847.5
445.4  14650
445.3  15260
445.2  15791.25
445.1  16238.75
445  16661.25
444.9  16985
444.8  16773.75
444.7  16508.75
444.6  16523.75
444.5  15772.5
444.4  15138.75
444.3  14017.5
444.2  13291.25
444.1  12127.5
444  11158.75
443.9  10215
443.8  9350
443.7  8267.5
443.6  7471.25
443.5  6712.5
443.4  6130
443.3  5513.75
443.2  4908.75
443.1  4495
443  4381.25
442.9  3852.5
442.8  3668.75
442.7  3483.75
442.6  3131.25
442.5  3136.25
442.4  3071.25
442.3  2930
442.2  2898.75
442.1  2710
442  2658.75
441.9  2521.25
441.8  2471.25
441.7  2447.5
441.6  2535
441.5  2371.25
441.4  2283.75
441.3  2261.25
441.2  2252.5
441.1  2132.5
441  2163.75
440.9  2058.75
440.8  2108.75
440.7  2100
440.6  2007.5
440.5  2050
440.4  1965
440.3  1971.25
440.2  1961.25
440.1  1896.25
440  1912.5
439.9  1862.5
439.8  1755
439.7  1742.5
439.6  1700
439.5  1732.5
439.4  1707.5
439.3  1631.25
439.2  1703.75
439.1  1611.25
439  1550
438.9  1665
438.8  1571.25
438.7  1553.75
438.6  1538.75
438.5  1493.75
438.4  1495
438.3  1467.5
438.2  1438.75
438.1  1461.25
438  1468.75
437.9  1446.25
437.8  1583.75
437.7  1502.5
437.6  1470
437.5  1421.25
437.4  1495
437.3  1426.25
437.2  1555
437.1  1548.75
437  1505

# Region:            Sn3d
# Acquisition Date:  08/23/22 18:04:45 UTC
# Analysis Method:   XPS
# Analyzer:          Phoibos 100 R6
# Analyzer Lens:     LargeArea:1.5kV
# Analyzer Slit:     1:0.2x20\B:open
# Scan Mode:         FixedAnalyzerTransmission
# Curves/Scan:       1
# Values/Curve:      231
# Dwell Time:        0.8
# Excitation Energy: 1486.61
# Binding Energy:    503
# Pass Energy:       30
# Bias Voltage:      90
# Detector Voltage:  2600
# Eff. Workfunction: 4.309
# Source:            X-Ray Dummy
# Comment:           
#
# Cycle: 0
# Number of Scans: 3
#
# Cycle: 0, Curve: 0
# Acquisition Date: 08/23/22 18:04:45 UTC
#
# ColumnLabels: energy counts/s
#
503  3513.3333
502.9  3507.0833
502.8  3538.75
502.7  3511.6667
502.6  3531.6667
502.5  3447.9167
502.4  3460
502.3  3462.0833
502.2  3536.6667
502.1  3562.5
502  3517.5
501.9  3513.3333
501.8  3489.1667
501.7  3499.5833
501.6  3515
501.5  3567.9167
501.4  3488.3333
501.3  3514.5833
501.2  3484.5833
501.1  3430.8333
501  3424.1667
500.9  3427.9167
500.8  3480.8333
500.7  3450.4167
500.6  3533.3333
500.5  3526.6667
500.4  3479.5833
500.3  3452.5
500.2  3471.25
500.1  3521.25
500  3520.4167
499.9  3452.0833
499.8  3440
499.7  3517.0833
499.6  3454.5833
499.5  3487.0833
499.4  3496.6667
499.3  3514.1667
499.2  3454.5833
499.1  3496.25
499  3480.4167
498.9  3477.0833
498.8  3565
498.7  3472.0833
498.6  3500
498.5  3524.1667
498.4  3485
498.3  3556.25
498.2  3502.0833
498.1  3580.4167
498  3515
497.9  3515.8333
497.8  3577.9167
497.7  3593.75
497.6  3582.0833
497.5  3650.4167
497.4  3686.25
497.3  3615.4167
497.2  3690
497.1  3706.25
497  3744.5833
496.9  3678.75
496.8  3787.9167
496.7  3814.5833
496.6  3835
496.5  3972.5
496.4  3965.8333
496.3  4038.3333
496.2  3989.5833
496.1  4074.5833
496  4132.0833
495.9  4093.75
495.8  4132.9167
495.7  4186.6667
495.6  4192.0833
495.5  4347.9167
495.4  4220
495.3  4245.4167
495.2  4228.3333
495.1  4317.0833
495  4099.5833
494.9  4234.5833
494.8  4060
494.7  4082.9167
494.6  3966.6667
494.5  3923.75
494.4  3823.3333
494.3  3670
494.2  3685.4167
494.1  3616.25
494  3647.5
493.9  3602.0833
493.8  3582.5
493.7  3524.5833
493.6  3523.75
493.5  3585
493.4  3481.6667
493.3  3469.5833
493.2  3444.5833
493.1  3446.25
493  3418.3333
492.9  3433.75
492.8  3389.5833
492.7  3435.4167
492.6  3481.6667
492.5  3439.5833
492.4  3360
492.3  3428.75
492.2  3420.4167
492.1  3458.75
492  3452.5
491.9  3355
491.8  3399.5833
491.7  3369.1667
491.6  3395
491.5  3407.9167
491.4  3384.5833
491.3  3423.75
491.2  3462.0833
491.1  3394.1667
491  3365.4167
490.9  3459.5833
490.8  3459.1667
490.7  3431.25
490.6  3492.9167
490.5  3426.6667
490.4  3346.6667
490.3  3417.9167
490.2  3493.3333
490.1  3373.75
490  3482.5
489.9  3462.5
489.8  3509.1667
489.7  3472.5
489.6  3443.3333
489.5  3527.5
489.4  3532.9167
489.3  3573.75
489.2  3533.3333
489.1  3650.4167
489  3681.25
488.9  3673.3333
488.8  3641.25
488.7  3607.9167
488.6  3779.5833
488.5  3776.6667
488.4  3833.3333
488.3  3902.5
488.2  4001.6667
488.1  4084.1667
488  4092.0833
487.9  4120.8333
487.8  4174.1667
487.7  4295
487.6  4348.3333
487.5  4377.9167
487.4  4400
487.3  4473.75
487.2  4526.6667
487.1  4541.6667
487  4531.25
486.9  4628.3333
486.8  4533.3333
486.7  4540
486.6  4450.8333
486.5  4429.1667
486.4  4362.5
486.3  4272.0833
486.2  4215.8333
486.1  4179.5833
486  4062.9167
485.9  3977.0833
485.8  3979.1667
485.7  3841.25
485.6  3760
485.5  3735.8333
485.4  3703.3333
485.3  3728.75
485.2  3572.9167
485.1  3617.9167
485  3594.5833
484.9  3522.9167
484.8  3472.5
484.7  3480
484.6  3454.1667
484.5  3502.9167
484.4  3493.3333
484.3  3439.5833
484.2  3472.9167
484.1  3382.5
484  3497.9167
483.9  3437.9167
483.8  3477.5
483.7  3351.25
483.6  3461.25
483.5  3410.4167
483.4  3460.8333
483.3  3440
483.2  3419.1667
483.1  3326.25
483  3378.3333
482.9  3411.25
482.8  3412.5
482.7  3477.0833
482.6  3439.1667
482.5  3458.75
482.4  3407.5
482.3  3392.0833
482.2  3482.0833
482.1  3435
482  3392.0833
481.9  3445
481.8  3376.25
481.7  3449.1667
481.6  3380.8333
481.5  3398.75
481.4  3368.75
481.3  3399.1667
481.2  3392.9167
481.1  3456.6667
481  3452.0833
480.9  3422.0833
480.8  3369.1667
480.7  3405.4167
480.6  3402.0833
480.5  3385
480.4  3390.8333
480.3  3359.5833
480.2  3394.1667
480.1  3462.5
480  3415.4167

# Region:            Na1s
# Acquisition Date:  08/23/22 18:22:30 UTC
# Analysis Method:   XPS
# Analyzer:          Phoibos 100 R6
# Analyzer Lens:     LargeArea:1.5kV
# Analyzer Slit:     1:0.2x20\B:open
# Scan Mode:         FixedAnalyzerTransmission
# Curves/Scan:       1
# Values/Curve:      201
# Dwell Time:        0.8
# Excitation Energy: 1486.61
# Binding Energy:    1085
# Pass Energy:       30
# Bias Voltage:      90
# Detector Voltage:  2600
# Eff. Workfunction: 4.309
# Source:            X-Ray Dummy
# Comment:           
#
# Cycle: 0
# Number of Scans: 4
#
# Cycle: 0, Curve: 0
# Acquisition Date: 08/23/22 18:22:30 UTC
#
# ColumnLabels: energy counts/s
#
1085  11866.25
1084.9  11725.313
1084.8  11795.938
1084.7  11521.25
1084.6  11452.188
1084.5  11425.625
1084.4  11202.5
1084.3  11149.688
1084.2  10944.375
1084.1  10998.125
1084  10815
1083.9  10770.938
1083.8  10643.438
1083.7  10431.563
1083.6  10384.688
1083.5  10381.875
1083.4  10319.688
1083.3  10088.75
1083.2  10023.125
1083.1  9978.125
1083  9958.4375
1082.9  9937.1875
1082.8  9896.25
1082.7  9832.5
1082.6  9893.125
1082.5  9861.5625
1082.4  9859.6875
1082.3  9855.625
1082.2  9851.875
1082.1  9787.5
1082  9779.375
1081.9  9870.9375
1081.8  9818.125
1081.7  9849.6875
1081.6  9979.6875
1081.5  10034.688
1081.4  10066.563
1081.3  10119.063
1081.2  10387.188
1081.1  10310
1081  10361.25
1080.9  10406.563
1080.8  10550
1080.7  10556.563
1080.6  10609.688
1080.5  10648.125
1080.4  10727.5
1080.3  10728.75
1080.2  10617.813
1080.1  10742.813
1080  10760.313
1079.9  10708.75
1079.8  10582.5
1079.7  10527.188
1079.6  10547.813
1079.5  10424.688
1079.4  10303.438
1079.3  10229.375
1079.2  10154.375
1079.1  10078.75
1079  10055.625
1078.9  10030.938
1078.8  9824.375
1078.7  9736.875
1078.6  9661.25
1078.5  9464.6875
1078.4  9416.875
1078.3  9445.625
1078.2  9209.375
1078.1  9145.9375
1078  9068.4375
1077.9  9053.125
1077.8  8942.5
1077.7  8801.5625
1077.6  8743.4375
1077.5  8724.0625
1077.4  8543.75
1077.3  8426.875
1077.2  8347.1875
1077.1  8240.9375
1077  8276.875
1076.9  8244.0625
1076.8  8126.25
1076.7  8042.8125
1076.6  7974.6875
1076.5  8077.8125
1076.4  7973.125
1076.3  7924.0625
1076.2  7902.1875
1076.1  7818.4375
1076  7796.875
1075.9  7697.8125
1075.8  7679.0625
1075.7  7667.1875
1075.6  7654.375
1075.5  7578.75
1075.4  7648.4375
1075.3  7567.8125
1075.2  7480.9375
1075.1  7485.625
1075  7495
1074.9  7386.875
1074.8  7455.625
1074.7  7436.25
1074.6  7303.75
1074.5  7320.9375
1074.4  7307.5
1074.3  7264.375
1074.2  7271.25
1074.1  7193.125
1074  7243.125
1073.9  7191.5625
1073.8  7313.75
1073.7  7175.625
1073.6  7287.1875
1073.5  7164.6875
1073.4  7197.5
1073.3  7146.875
1073.2  7269.0625
1073.1  7150
1073  7074.0625
1072.9  7171.5625
1072.8  7200
1072.7  7121.875
1072.6  7131.25
1072.5  7190.625
1072.4  7239.375
1072.3  7206.25
1072.2  7190.9375
1072.1  7195
1072  7199.6875
1071.9  7157.1875
1071.8  7250
1071.7  7167.1875
1071.6  7143.4375
1071.5  7235
1071.4  7194.0625
1071.3  7243.4375
1071.2  7130.3125
1071.1  7219.375
1071  7168.75
1070.9  7140.9375
1070.8  7150.3125
1070.7  7197.8125
1070.6  7156.875
1070.5  7190.3125
1070.4  7075.9375
1070.3  7229.0625
1070.2  7274.6875
1070.1  7204.6875
1070  7095.9375
1069.9  7198.75
1069.8  7122.8125
1069.7  7253.125
1069.6  7229.0625
1069.5  7141.875
1069.4  7145.3125
1069.3  7117.5
1069.2  7207.8125
1069.1  7238.4375
1069  7199.375
1068.9  7141.25
1068.8  7157.8125
1068.7  7215.9375
1068.6  7200.9375
1068.5  7188.4375
1068.4  7209.0625
1068.3  7313.125
1068.2  7212.5
1068.1  7243.125
1068  7255.9375
1067.9  7275.3125
1067.8  7162.1875
1067.7  7141.5625
1067.6  7210.625
1067.5  7267.8125
1067.4  7331.875
1067.3  7176.25
1067.2  7291.875
1067.1  7284.375
1067  7182.1875
1066.9  7302.5
1066.8  7131.875
1066.7  7183.4375
1066.6  7264.0625
1066.5  7211.5625
1066.4  7255.625
1066.3  7184.6875
1066.2  7167.5
1066.1  7190.3125
1066  7137.5
1065.9  7089.0625
1065.8  7168.75
1065.7  7200
1065.6  7155.9375
1065.5  7165.9375
1065.4  7105.3125
1065.3  7200
1065.2  7214.6875
1065.1  7189.0625
1065  7217.5

# Region:            Ba3d
# Acquisition Date:  08/23/22 18:24:08 UTC
# Analysis Method:   XPS
# Analyzer:          Phoibos 100 R6
# Analyzer Lens:     LargeArea:1.5kV
# Analyzer Slit:     1:0.2x20\B:open
# Scan Mode:         FixedAnalyzerTransmission
# Curves/Scan:       1
# Values/Curve:      121
# Dwell Time:        0.8
# Excitation Energy: 1486.61
# Binding Energy:    789
# Pass Energy:       30
# Bias Voltage:      90
# Detector Voltage:  2600
# Eff. Workfunction: 4.309
# Source:            X-Ray Dummy
# Comment:           
#
# Cycle: 0
# Number of Scans: 4
#
# Cycle: 0, Curve: 0
# Acquisition Date: 08/23/22 18:24:08 UTC
#
# ColumnLabels: energy counts/s
#
789  5128.4375
788.9  5242.8125
788.8  5356.875
788.7  5110.9375
788.6  5185.9375
788.5  5193.125
788.4  5253.4375
788.3  5220.3125
788.2  5246.25
788.1  5205
788  5157.5
787.9  5235.625
787.8  5241.875
787.7  5263.125
787.6  5258.125
787.5  5214.0625
787.4  5258.4375
787.3  5151.875
787.2  5259.0625
787.1  5286.25
787  5273.4375
786.9  5170.3125
786.8  5297.5
786.7  5217.8125
786.6  5194.0625
786.5  5264.0625
786.4  5166.5625
786.3  5226.25
786.2  5258.125
786.1  5178.125
786  5198.75
785.9  5214.375
785.8  5204.0625
785.7  5273.4375
785.6  5204.6875
785.5  5246.25
785.4  5215.9375
785.3  5155.9375
785.2  5241.25
785.1  5213.75
785  5231.875
784.9  5239.6875
784.8  5209.375
784.7  5199.6875
784.6  5223.125
784.5  5226.25
784.4  5180
784.3  5205
784.2  5183.4375
784.1  5254.375
784  5221.5625
783.9  5206.5625
783.8  5244.6875
783.7  5254.0625
783.6  5252.1875
783.5  5195.3125
783.4  5210.9375
783.3  5259.375
783.2  5182.5
783.1  5278.125
783  5212.5
782.9  5192.8125
782.8  5222.1875
782.7  5213.4375
782.6  5208.125
782.5  5276.5625
782.4  5213.125
782.3  5157.1875
782.2  5227.8125
782.1  5215.9375
782  5250
781.9  5292.8125
781.8  5245.625
781.7  5247.8125
781.6  5329.375
781.5  5311.5625
781.4  5275.9375
781.3  5249.6875
781.2  5250.9375
781.1  5283.75
781  5347.5
780.9  5276.25
780.8  5263.4375
780.7  5317.8125
780.6  5303.75
780.5  5233.75
780.4  5272.5
780.3  5326.25
780.2  5221.25
780.1  5236.5625
780  5266.5625
779.9  5262.8125
779.8  5247.8125
779.7  5222.1875
779.6  5258.125
779.5  5250.625
779.4  5265
779.3  5262.5
779.2  5215.3125
779.1  5234.375
779  5292.1875
778.9  5156.875
778.8  5293.4375
778.7  5252.5
778.6  5141.25
778.5  5271.25
778.4  5250
778.3  5200
778.2  5224.6875
778.1  5250.3125
778  5232.1875
777.9  5224.375
777.8  5225
777.7  5226.5625
777.6  5230
777.5  5202.1875
777.4  5269.0625
777.3  5237.1875
777.2  5205
777.1  5156.5625
777  5234.6875

# Region:            Cl2p
# Acquisition Date:  08/23/22 19:18:50 UTC
# Analysis Method:   XPS
# Analyzer:          Phoibos 100 R6
# Analyzer Lens:     LargeArea:1.5kV
# Analyzer Slit:     1:0.2x20\B:open
# Scan Mode:         FixedAnalyzerTransmission
# Curves/Scan:       1
# Values/Curve:      111
# Dwell Time:        0.8
# Excitation Energy: 1486.61
# Binding Energy:    207
# Pass Energy:       30
# Bias Voltage:      90
# Detector Voltage:  2600
# Eff. Workfunction: 4.309
# Source:            X-Ray Dummy
# Comment:           
#
# Cycle: 0
# Number of Scans: 9
#
# Cycle: 0, Curve: 0
# Acquisition Date: 08/23/22 19:18:50 UTC
#
# ColumnLabels: energy counts/s
#
207  974.72222
206.9  966.66667
206.8  961.38889
206.7  970.69444
206.6  966.11111
206.5  978.75
206.4  966.52778
206.3  966.52778
206.2  981.94444
206.1  970.83333
206  949.86111
205.9  956.80556
205.8  954.16667
205.7  950.97222
205.6  971.25
205.5  955.27778
205.4  959.30556
205.3  982.22222
205.2  966.11111
205.1  954.02778
205  980.41667
204.9  971.52778
204.8  945
204.7  948.33333
204.6  978.61111
204.5  951.66667
204.4  972.22222
204.3  948.88889
204.2  974.16667
204.1  960.55556
204  971.25
203.9  990.97222
203.8  957.08333
203.7  963.75
203.6  931.94444
203.5  944.44444
203.4  978.33333
203.3  966.38889
203.2  940
203.1  959.02778
203  974.16667
202.9  964.58333
202.8  956.66667
202.7  938.05556
202.6  972.08333
202.5  971.11111
202.4  949.16667
202.3  965.41667
202.2  992.91667
202.1  955.55556
202  949.86111
201.9  946.80556
201.8  943.05556
201.7  964.86111
201.6  951.52778
201.5  940.97222
201.4  989.58333
201.3  949.58333
201.2  956.11111
201.1  970.97222
201  967.36111
200.9  964.44444
200.8  966.52778
200.7  957.63889
200.6  978.19444
200.5  978.47222
200.4  956.66667
200.3  973.88889
200.2  975
200.1  990.83333
200  972.22222
199.9  961.66667
199.8  959.58333
199.7  990.41667
199.6  985.83333
199.5  985.13889
199.4  989.86111
199.3  979.86111
199.2  970.97222
199.1  1002.0833
199  990.69444
198.9  987.5
198.8  983.33333
198.7  977.08333
198.6  982.22222
198.5  1011.6667
198.4  996.11111
198.3  989.86111
198.2  988.47222
198.1  994.86111
198  972.22222
197.9  999.30556
197.8  987.77778
197.7  985.97222
197.6  973.19444
197.5  984.44444
197.4  974.86111
197.3  962.5
197.2  953.05556
197.1  982.08333
197  972.77778
196.9  955.69444
196.8  967.36111
196.7  965.55556
196.6  979.02778
196.5  987.91667
196.4  959.86111
196.3  964.72222
196.2  946.94444
196.1  976.80556
196  961.94444

# Group:             overview_HD
#
# Region:            overview
# Acquisition Date:  08/24/22 08:15:00 UTC
# Analysis Method:   XPS
# Analyzer:          Phoibos 100 R6
# Analyzer Lens:     LargeArea:1.5kV
# Analyzer Slit:     1:0.2x20\B:open
# Scan Mode:         FixedAnalyzerTransmission
# Curves/Scan:       1
# Values/Curve:      6021
# Dwell Time:        0.4
# Excitation Energy: 1486.61
# Binding Energy:    1200
# Pass Energy:       30
# Bias Voltage:      90
# Detector Voltage:  2600
# Eff. Workfunction: 4.309
# Source:            X-Ray Dummy
# Comment:           
#
# Cycle: 0
# Number of Scans: 8
#
# Cycle: 0, Curve: 0
# Acquisition Date: 08/24/22 08:15:00 UTC
#
# ColumnLabels: energy counts/s
#
1200  11023.438
1199.8  10908.125
1199.6  10914.063
1199.4  10948.75
1199.2  11030.938
1199  10934.063
1198.8  10949.063
1198.6  10907.188
1198.4  10971.563
1198.2  10916.563
1198  10900.938
1197.8  10955
1197.6  11079.063
1197.4  10956.563
1197.2  11030.938
1197  10947.5
1196.8  10945.625
1196.6  10923.438
1196.4  11045.938
1196.2  10993.125
1196  11104.688
1195.8  11080.938
1195.6  11110.313
1195.4  10993.125
1195.2  11073.75
1195  11048.125
1194.8  10939.375
1194.6  11043.75
1194.4  11119.375
1194.2  11196.875
1194  11170.313
1193.8  11005
1193.6  11166.563
1193.4  11012.5
1193.2  11131.875
1193  11122.5
1192.8  11222.5
1192.6  11214.688
1192.4  11257.813
1192.2  11021.563
1192  11237.188
1191.8  11161.875
1191.6  11190
1191.4  11135.313
1191.2  11126.875
1191  11003.125
1190.8  11134.688
1190.6  11082.188
1190.4  11029.688
1190.2  10973.125
1190  10978.438
1189.8  10915.938
1189.6  10933.75
1189.4  10930.938
1189.2  10875.625
1189  10853.438
1188.8  10889.375
1188.6  10913.438
1188.4  10865
1188.2  10844.688
1188  10826.875
1187.8  10856.25
1187.6  10905.313
1187.4  10886.25
1187.2  10779.063
1187  10718.75
1186.8  10757.813
1186.6  10802.5
1186.4  10791.563
1186.2  10945.313
1186  10783.438
1185.8  10714.375
1185.6  10785.313
1185.4  10751.563
1185.2  10771.563
1185  10763.438
1184.8  10692.813
1184.6  10601.875
1184.4  10792.5
1184.2  10642.5
1184  10653.75
1183.8  10652.813
1183.6  10588.438
1183.4  10655.625
1183.2  10625.625
1183  10574.688
1182.8  10585.625
1182.6  10624.375
1182.4  10522.5
1182.2  10494.375
1182  10546.875
1181.8  10700
1181.6  10439.063
1181.4  10415.938
1181.2  10491.25
1181  10477.5
1180.8  10490.625
1180.6  10378.75
1180.4  10493.438
1180.2  10513.438
1180  10461.875
1179.8  10329.688
1179.6  10386.875
1179.4  10394.063
1179.2  10471.25
1179  10450.938
1178.8  10401.25
1178.6  10456.25
1178.4  10400.625
1178.2  10437.188
1178  10451.875
1177.8  10393.75
1177.6  10519.063
1177.4  10436.875
1177.2  10373.125
1177  10380.625
1176.8  10416.563
1176.6  10400.938
1176.4  10400.313
1176.2  10459.063
1176  10441.875
1175.8  10364.688
1175.6  10434.688
1175.4  10390
1175.2  10428.75
1175  10430
1174.8  10418.438
1174.6  10534.688
1174.4  10514.375
1174.2  10495
1174  10460.938
1173.8  10457.5
1173.6  10379.063
1173.4  10497.813
1173.2  10335.625
1173  10487.188
1172.8  10491.563
1172.6  10429.688
1172.4  10388.125
1172.2  10487.5
1172  10397.188
1171.8  10466.25
1171.6  10488.125
1171.4  10488.438
1171.2  10385.938
1171  10500.938
1170.8  10569.688
1170.6  10500.313
1170.4  10403.125
1170.2  10421.25
1170  10488.438
1169.8  10414.063
1169.6  10489.688
1169.4  10497.813
1169.2  10608.438
1169  10548.438
1168.8  10556.25
1168.6  10518.125
1168.4  10477.5
1168.2  10482.5
1168  10520.938
1167.8  10456.563
1167.6  10503.125
1167.4  10583.75
1167.2  10512.813
1167  10482.813
1166.8  10479.688
1166.6  10592.5
1166.4  10617.5
1166.2  10582.188
1166  10531.563
1165.8  10505
1165.6  10478.125
1165.4  10556.563
1165.2  10625.625
1165  10602.188
1164.8  10544.375
1164.6  10612.813
1164.4  10497.813
1164.2  10624.688
1164  10556.875
1163.8  10625.313
1163.6  10562.5
1163.4  10565.625
1163.2  10504.688
1163  10667.813
1162.8  10610.313
1162.6  10557.188
1162.4  10625.938
1162.2  10532.188
1162  10595.938
1161.8  10619.063
1161.6  10518.125
1161.4  10600.938
1161.2  10623.75
1161  10684.375
1160.8  10650.625
1160.6  10623.75
1160.4  10621.563
1160.2  10609.375
1160  10615.313
1159.8  10618.125
1159.6  10579.375
1159.4  10638.125
1159.2  10642.188
1159  10665.313
1158.8  10794.375
1158.6  10589.063
1158.4  10631.563
1158.2  10648.75
1158  10596.25
1157.8  10500.625
1157.6  10618.75
1157.4  10646.875
1157.2  10611.563
1157  10638.75
1156.8  10725.313
1156.6  10639.375
1156.4  10655.625
1156.2  10788.438
1156  10678.438
1155.8  10629.375
1155.6  10695.938
1155.4  10613.438
1155.2  10715
1155  10661.875
1154.8  10669.688
1154.6  10639.375
1154.4  10674.063
1154.2  10632.5
1154  10587.813
1153.8  10607.5
1153.6  10628.438
1153.4  10532.188
1153.2  10633.125
1153  10683.438
1152.8  10615
1152.6  10648.125
1152.4  10505.938
1152.2  10599.375
1152  10545
1151.8  10616.25
1151.6  10665.625
1151.4  10527.188
1151.2  10457.5
1151  10556.875
1150.8  10629.688
1150.6  10535.938
1150.4  10566.25
1150.2  10513.75
1150  10608.438
1149.8  10534.688
1149.6  10635.938
1149.4  10457.813
1149.2  10508.75
1149  10483.438
1148.8  10539.375
1148.6  10474.063
1148.4  10483.125
1148.2  10526.875
1148  10503.75
1147.8  10503.125
1147.6  10432.188
1147.4  10440.938
1147.2  10361.25
1147  10500.313
1146.8  10474.375
1146.6  10455.938
1146.4  10455.625
1146.2  10323.438
1146  10409.375
1145.8  10292.813
1145.6  10420.938
1145.4  10295.938
1145.2  10428.438
1145  10334.688
1144.8  10271.563
1144.6  10251.25
1144.4  10331.25
1144.2  10282.5
1144  10195
1143.8  10195.938
1143.6  10195.625
1143.4  10199.063
1143.2  10116.25
1143  10156.25
1142.8  10245.313
1142.6  10103.125
1142.4  10098.75
1142.2  10052.813
1142  10095.938
1141.8  10074.375
1141.6  9946.5625
1141.4  10005
1141.2  9994.375
1141  10017.188
1140.8  9837.1875
1140.6  9912.1875
1140.4  9956.875
1140.2  9886.875
1140  9709.375
1139.8  9842.1875
1139.6  9751.25
1139.4  9726.25
1139.2  9787.8125
1139  9684.6875
1138.8  9715
1138.6  9544.0625
1138.4  9674.0625
1138.2  9644.0625
1138  9645.3125
1137.8  9564.0625
1137.6  9571.25
1137.4  9453.125
1137.2  9599.6875
1137  9570
1136.8  9512.1875
1136.6  9521.875
1136.4  9493.75
1136.2  9417.8125
1136  9404.0625
1135.8  9379.6875
1135.6  9367.5
1135.4  9335.3125
1135.2  9409.0625
1135  9313.4375
1134.8  9325.9375
1134.6  9276.875
1134.4  9275.3125
1134.2  9339.6875
1134  9274.375
1133.8  9207.5
1133.6  9279.375
1133.4  9189.0625
1133.2  9205.9375
1133  9269.0625
1132.8  9237.5
1132.6  9074.0625
1132.4  9179.6875
1132.2  9114.6875
1132  9112.5
1131.8  9130.9375
1131.6  9143.4375
1131.4  9088.4375
1131.2  8995
1131  9113.125
1130.8  9098.4375
1130.6  9084.375
1130.4  9077.5
1130.2  9089.375
1130  9081.25
1129.8  9002.8125
1129.6  8952.1875
1129.4  9033.4375
1129.2  8984.375
1129  8985.9375
1128.8  9039.0625
1128.6  8915.3125
1128.4  8935.3125
1128.2  8954.6875
1128  8994.6875
1127.8  8924.0625
1127.6  8955
1127.4  8975.625
1127.2  8894.375
1127  8983.125
1126.8  9060
1126.6  9025.625
1126.4  8985
1126.2  8898.4375
1126  8896.25
1125.8  8908.75
1125.6  8920
1125.4  8965.3125
1125.2  8932.8125
1125  8872.1875
1124.8  8862.5
1124.6  8871.5625
1124.4  8861.25
1124.2  8980
1124  8899.375
1123.8  8948.125
1123.6  8971.875
1123.4  8944.375
1123.2  8847.8125
1123  8918.75
1122.8  8974.6875
1122.6  8898.125
1122.4  9023.125
1122.2  8899.375
1122  8978.75
1121.8  8877.8125
1121.6  8921.875
1121.4  8841.25
1121.2  8947.5
1121  8908.125
1120.8  8941.25
1120.6  8983.4375
1120.4  8844.6875
1120.2  8915
1120  8910.9375
1119.8  8980
1119.6  8801.5625
1119.4  8919.6875
1119.2  8935.625
1119  8917.1875
1118.8  9046.5625
1118.6  8870
1118.4  8839.375
1118.2  9003.4375
1118  8907.8125
1117.8  8995.625
1117.6  8975.3125
1117.4  8875.3125
1117.2  8960
1117  8922.8125
1116.8  8929.375
1116.6  8973.125
1116.4  8859.375
1116.2  8897.8125
1116  8976.25
1115.8  8895.625
1115.6  8990.3125
1115.4  8972.8125
1115.2  8910.625
1115  9011.875
1114.8  8968.125
1114.6  8968.125
1114.4  9105.9375
1114.2  8977.8125
1114  8974.375
1113.8  8943.125
1113.6  9040.3125
1113.4  8981.875
1113.2  8982.8125
1113  9071.5625
1112.8  8938.75
1112.6  9013.75
1112.4  9083.4375
1112.2  9078.4375
1112  9011.875
1111.8  8987.8125
1111.6  8999.375
1111.4  8996.25
1111.2  9025
1111  8931.25
1110.8  9045.9375
1110.6  8990.3125
1110.4  8960.9375
1110.2  9009.375
1110  9032.8125
1109.8  8984.0625
1109.6  8879.0625
1109.4  9062.8125
1109.2  9025.3125
1109  8969.6875
1108.8  9085.9375
1108.6  8967.1875
1108.4  9068.125
1108.2  9075
1108  9030.625
1107.8  9094.6875
1107.6  9020.3125
1107.4  9115
1107.2  9105
1107  9073.125
1106.8  8983.125
1106.6  8945.625
1106.4  9050
1106.2  9001.875
1106  8986.25
1105.8  8912.5
1105.6  9017.1875
1105.4  9079.6875
1105.2  9033.4375
1105  9027.5
1104.8  9112.1875
1104.6  9037.8125
1104.4  9045.625
1104.2  8982.5
1104  9114.6875
1103.8  9100.9375
1103.6  9053.125
1103.4  9036.875
1103.2  9093.125
1103  9085.3125
1102.8  8998.125
1102.6  9081.25
1102.4  9033.75
1102.2  9037.1875
1102  9065.3125
1101.8  9057.8125
1101.6  9015.625
1101.4  9011.25
1101.2  8995.3125
1101  9004.6875
1100.8  9009.0625
1100.6  8960
1100.4  8996.875
1100.2  9015.3125
1100  9072.1875
1099.8  8922.5
1099.6  8977.8125
1099.4  9048.4375
1099.2  8949.6875
1099  9083.75
1098.8  9001.875
1098.6  8995
1098.4  9101.875
1098.2  9072.5
1098  9017.8125
1097.8  9129.375
1097.6  9000.625
1097.4  9075
1097.2  9069.0625
1097  8929.0625
1096.8  9060.3125
1096.6  9053.75
1096.4  9080
1096.2  9044.0625
1096  9181.25
1095.8  9100.9375
1095.6  9064.0625
1095.4  9028.75
1095.2  9100.3125
1095  9135.3125
1094.8  9245
1094.6  9204.375
1094.4  9167.1875
1094.2  9079.0625
1094  9161.875
1093.8  9184.6875
1093.6  9238.4375
1093.4  9212.5
1093.2  9338.75
1093  9344.375
1092.8  9388.75
1092.6  9472.5
1092.4  9585.9375
1092.2  9502.8125
1092  9592.5
1091.8  9706.875
1091.6  9703.125
1091.4  9774.375
1091.2  9792.1875
1091  9857.8125
1090.8  9978.125
1090.6  10054.375
1090.4  10072.188
1090.2  10325.938
1090  10471.563
1089.8  10620.313
1089.6  10645.625
1089.4  10906.563
1089.2  11165.313
1089  11420.625
1088.8  11760.313
1088.6  11838.75
1088.4  12162.188
1088.2  12460.625
1088  12468.438
1087.8  12783.125
1087.6  12693.438
1087.4  12717.188
1087.2  12743.438
1087  12870
1086.8  12779.375
1086.6  12823.438
1086.4  12830.625
1086.2  12812.5
1086  12643.438
1085.8  12427.5
1085.6  12413.75
1085.4  12154.688
1085.2  12038.75
1085  11821.563
1084.8  11623.75
1084.6  11530
1084.4  11311.25
1084.2  11148.75
1084  10790
1083.8  10679.688
1083.6  10536.875
1083.4  10407.813
1083.2  10110.313
1083  10064.375
1082.8  10026.875
1082.6  10004.688
1082.4  9921.5625
1082.2  9975.9375
1082  10010.313
1081.8  10111.563
1081.6  10178.125
1081.4  10250.938
1081.2  10411.25
1081  9974.0625
1080.8  9857.5
1080.6  10592.5
1080.4  10644.063
1080.2  10661.25
1080  10515.313
1079.8  10569.063
1079.6  10525
1079.4  10236.875
1079.2  10085.625
1079  9985.9375
1078.8  9827.5
1078.6  9756.25
1078.4  9552.8125
1078.2  9276.875
1078  9207.8125
1077.8  8928.125
1077.6  8864.375
1077.4  8615.3125
1077.2  8481.875
1077  8319.375
1076.8  8174.0625
1076.6  8078.75
1076.4  7964.375
1076.2  8043.75
1076  7725.9375
1075.8  7691.25
1075.6  7621.25
1075.4  7568.125
1075.2  7445
1075  7427.1875
1074.8  7446.25
1074.6  7334.375
1074.4  7303.4375
1074.2  7246.25
1074  7174.0625
1073.8  7120.3125
1073.6  7170
1073.4  7132.5
1073.2  7078.125
1073  7140
1072.8  7192.1875
1072.6  7164.0625
1072.4  7263.125
1072.2  7174.375
1072  7176.25
1071.8  7102.5
1071.6  7138.75
1071.4  7119.0625
1071.2  7071.875
1071  7108.125
1070.8  7124.375
1070.6  7150.3125
1070.4  7139.375
1070.2  7044.375
1070  7139.6875
1069.8  7154.6875
1069.6  7140.625
1069.4  7091.5625
1069.2  7149.375
1069  7076.875
1068.8  7129.6875
1068.6  7140.3125
1068.4  7106.875
1068.2  7175
1068  7229.0625
1067.8  7232.8125
1067.6  7193.4375
1067.4  7210.625
1067.2  7127.5
1067  7180.9375
1066.8  7136.25
1066.6  7222.8125
1066.4  7203.125
1066.2  7166.5625
1066  7140.3125
1065.8  7156.875
1065.6  7117.1875
1065.4  7035.9375
1065.2  7155.9375
1065  7170.625
1064.8  7091.875
1064.6  7169.0625
1064.4  7099.6875
1064.2  7056.25
1064  7165.3125
1063.8  7135.625
1063.6  7175.9375
1063.4  7204.0625
1063.2  7168.125
1063  7122.8125
1062.8  7192.5
1062.6  7207.5
1062.4  7198.125
1062.2  7246.25
1062  7184.6875
1061.8  7234.375
1061.6  7225
1061.4  7280.3125
1061.2  7217.1875
1061  7226.875
1060.8  7216.25
1060.6  7165
1060.4  7260.9375
1060.2  7175.9375
1060  7181.25
1059.8  7085.625
1059.6  7075.9375
1059.4  7051.875
1059.2  6965.3125
1059  6991.25
1058.8  6900.625
1058.6  6954.375
1058.4  6870.3125
1058.2  6920
1058  6859.375
1057.8  6868.125
1057.6  6738.4375
1057.4  6746.5625
1057.2  6809.0625
1057  6741.25
1056.8  6700.625
1056.6  6639.6875
1056.4  6704.6875
1056.2  6692.8125
1056  6708.4375
1055.8  6653.125
1055.6  6714.6875
1055.4  6752.1875
1055.2  6745.9375
1055  6627.1875
1054.8  6685.3125
1054.6  6655.9375
1054.4  6724.0625
1054.2  6709.0625
1054  6715.9375
1053.8  6706.25
1053.6  6735
1053.4  6634.6875
1053.2  6707.5
1053  6686.5625
1052.8  6595.625
1052.6  6664.6875
1052.4  6608.75
1052.2  6592.8125
1052  6599.375
1051.8  6560.625
1051.6  6601.5625
1051.4  6536.25
1051.2  6568.75
1051  6455.9375
1050.8  6505.3125
1050.6  6444.375
1050.4  6456.5625
1050.2  6457.8125
1050  6441.5625
1049.8  6485.9375
1049.6  6373.125
1049.4  6403.4375
1049.2  6414.375
1049  6402.1875
1048.8  6404.0625
1048.6  6381.875
1048.4  6390.9375
1048.2  6409.6875
1048  6333.125
1047.8  6299.6875
1047.6  6368.125
1047.4  6442.1875
1047.2  6369.0625
1047  6347.5
1046.8  6400.9375
1046.6  6296.875
1046.4  6395.9375
1046.2  6453.75
1046  6379.6875
1045.8  6323.125
1045.6  6338.125
1045.4  6336.25
1045.2  6353.75
1045  6295.9375
1044.8  6430.3125
1044.6  6403.125
1044.4  6262.8125
1044.2  6368.4375
1044  6280.625
1043.8  6373.4375
1043.6  6372.5
1043.4  6364.0625
1043.2  6434.375
1043  6379.0625
1042.8  6365.3125
1042.6  6307.5
1042.4  6333.125
1042.2  6360.9375
1042  6388.75
1041.8  6347.1875
1041.6  6350.625
1041.4  6392.5
1041.2  6301.25
1041  6424.0625
1040.8  6428.75
1040.6  6306.5625
1040.4  6335.3125
1040.2  6338.75
1040  6356.875
1039.8  6276.25
1039.6  6395.3125
1039.4  6409.0625
1039.2  6341.25
1039  6378.125
1038.8  6380
1038.6  6375.9375
1038.4  6360
1038.2  6385.3125
1038  6342.1875
1037.8  6392.1875
1037.6  6295
1037.4  6281.25
1037.2  6355.3125
1037  6312.5
1036.8  6323.75
1036.6  6357.8125
1036.4  6410.9375
1036.2  6315.625
1036  6432.1875
1035.8  6336.875
1035.6  6368.75
1035.4  6364.375
1035.2  6349.375
1035  6379.0625
1034.8  6375.625
1034.6  6349.0625
1034.4  6355.3125
1034.2  6341.875
1034  6466.25
1033.8  6364.375
1033.6  6358.75
1033.4  6372.8125
1033.2  6367.1875
1033  6360.625
1032.8  6380.9375
1032.6  6344.6875
1032.4  6419.0625
1032.2  6398.75
1032  6394.375
1031.8  6308.75
1031.6  6287.1875
1031.4  6313.4375
1031.2  6352.5
1031  6332.1875
1030.8  6333.4375
1030.6  6352.8125
1030.4  6288.125
1030.2  6316.5625
1030  6437.8125
1029.8  6414.6875
1029.6  6350.625
1029.4  6342.8125
1029.2  6401.25
1029  6337.5
1028.8  6347.1875
1028.6  6334.0625
1028.4  6241.25
1028.2  6369.0625
1028  6440.3125
1027.8  6408.125
1027.6  6443.75
1027.4  6246.875
1027.2  6316.5625
1027  6372.5
1026.8  6392.1875
1026.6  6344.0625
1026.4  6400.3125
1026.2  6418.75
1026  6303.125
1025.8  6376.875
1025.6  6336.875
1025.4  6362.1875
1025.2  6297.8125
1025  6335.3125
1024.8  6422.8125
1024.6  6415.9375
1024.4  6345.625
1024.2  6421.875
1024  6376.875
1023.8  6356.875
1023.6  6326.25
1023.4  6428.125
1023.2  6352.5
1023  6415.625
1022.8  6432.5
1022.6  6367.8125
1022.4  6407.8125
1022.2  6300.9375
1022  6382.8125
1021.8  6422.5
1021.6  6395.3125
1021.4  6372.5
1021.2  6390.9375
1021  6349.0625
1020.8  6338.4375
1020.6  6332.5
1020.4  6387.1875
1020.2  6322.8125
1020  6329.6875
1019.8  6311.25
1019.6  6343.75
1019.4  6453.125
1019.2  6420.9375
1019  6413.125
1018.8  6365.9375
1018.6  6369.6875
1018.4  6371.5625
1018.2  6465.3125
1018  6409.6875
1017.8  6359.0625
1017.6  6450.3125
1017.4  6329.0625
1017.2  6408.125
1017  6413.75
1016.8  6397.1875
1016.6  6414.6875
1016.4  6467.5
1016.2  6427.5
1016  6476.875
1015.8  6439.6875
1015.6  6419.6875
1015.4  6467.8125
1015.2  6372.1875
1015  6501.25
1014.8  6361.25
1014.6  6514.375
1014.4  6432.1875
1014.2  6439.6875
1014  6425.9375
1013.8  6476.5625
1013.6  6517.5
1013.4  6481.5625
1013.2  6440.625
1013  6490.625
1012.8  6459.6875
1012.6  6455.625
1012.4  6496.25
1012.2  6508.75
1012  6572.1875
1011.8  6479.6875
1011.6  6431.875
1011.4  6611.875
1011.2  6428.75
1011  6507.5
1010.8  6488.75
1010.6  6635.9375
1010.4  6514.6875
1010.2  6568.4375
1010  6524.6875
1009.8  6505.3125
1009.6  6516.875
1009.4  6485.625
1009.2  6481.25
1009  6478.75
1008.8  6550.9375
1008.6  6470.3125
1008.4  6486.875
1008.2  6481.5625
1008  6364.375
1007.8  6456.5625
1007.6  6516.875
1007.4  6545.3125
1007.2  6457.5
1007  6526.5625
1006.8  6372.5
1006.6  6485.3125
1006.4  6362.5
1006.2  6433.125
1006  6402.1875
1005.8  6431.25
1005.6  6412.5
1005.4  6349.375
1005.2  6395.3125
1005  6429.6875
1004.8  6478.4375
1004.6  6405.3125
1004.4  6416.875
1004.2  6416.5625
1004  6507.8125
1003.8  6418.4375
1003.6  6430.3125
1003.4  6362.8125
1003.2  6442.8125
1003  6443.4375
1002.8  6478.4375
1002.6  6449.6875
1002.4  6497.8125
1002.2  6441.25
1002  6416.5625
1001.8  6471.875
1001.6  6451.875
1001.4  6563.125
1001.2  6495.625
1001  6598.75
1000.8  6493.125
1000.6  6560.9375
1000.4  6579.6875
1000.2  6547.1875
1000  6624.0625
999.8  6570.9375
999.6  6637.8125
999.4  6537.5
999.2  6620.625
999  6674.375
998.8  6631.5625
998.6  6635.3125
998.4  6599.6875
998.2  6738.75
998  6575.625
997.8  6626.25
997.6  6737.8125
997.4  6698.4375
997.2  6705.625
997  6751.5625
996.8  6754.375
996.6  6688.75
996.4  6745.625
996.2  6726.5625
996  6761.25
995.8  6850.9375
995.6  6740.3125
995.4  6663.75
995.2  6875.625
995  6775.625
994.8  6795
994.6  6849.375
994.4  6782.5
994.2  6814.375
994  6738.125
993.8  6645.625
993.6  6740
993.4  6655.9375
993.2  6751.875
993  6631.875
992.8  6611.875
992.6  6574.375
992.4  6544.0625
992.2  6505.625
992  6521.25
991.8  6417.8125
991.6  6379.0625
991.4  6480
991.2  6431.25
991  6424.0625
990.8  6405.625
990.6  6381.875
990.4  6389.375
990.2  6436.25
990  6465.625
989.8  6418.75
989.6  6477.5
989.4  6490.3125
989.2  6393.75
989  6395.9375
988.8  6434.375
988.6  6447.1875
988.4  6390
988.2  6468.125
988  6420
987.8  6365.3125
987.6  6363.4375
987.4  6451.25
987.2  6451.5625
987  6456.875
986.8  6369.375
986.6  6308.4375
986.4  6343.125
986.2  6293.125
986  6304.0625
985.8  6312.1875
985.6  6294.375
985.4  6348.75
985.2  6385
985  6358.75
984.8  6315.9375
984.6  6394.0625
984.4  6313.125
984.2  6353.75
984  6332.8125
983.8  6385
983.6  6326.25
983.4  6296.5625
983.2  6323.4375
983  6362.8125
982.8  6362.5
982.6  6354.0625
982.4  6384.375
982.2  6392.8125
982  6368.125
981.8  6320.625
981.6  6435.625
981.4  6434.0625
981.2  6343.125
981  6477.8125
980.8  6385.9375
980.6  6500.625
980.4  6459.6875
980.2  6530.625
980  6436.875
979.8  6530.625
979.6  6557.5
979.4  6487.1875
979.2  6604.6875
979  6652.8125
978.8  6570.625
978.6  6613.4375
978.4  6651.875
978.2  6817.1875
978  6822.5
977.8  6910
977.6  7002.8125
977.4  7100.9375
977.2  7160.625
977  7145.9375
976.8  7250.9375
976.6  7271.5625
976.4  7460.9375
976.2  7439.375
976  7646.25
975.8  7737.5
975.6  7680
975.4  7877.8125
975.2  7714.0625
975  7886.25
974.8  7834.375
974.6  7895.3125
974.4  7810.9375
974.2  7627.8125
974  7624.6875
973.8  7581.5625
973.6  7402.8125
973.4  7273.75
973.2  7200.9375
973  7122.5
972.8  6972.5
972.6  6947.1875
972.4  6738.75
972.2  6654.6875
972  6782.8125
971.8  6653.125
971.6  6583.75
971.4  6554.6875
971.2  6555.625
971  6487.1875
970.8  6415.625
970.6  6465.9375
970.4  6358.4375
970.2  6356.875
970  6374.0625
969.8  6333.125
969.6  6282.1875
969.4  6284.375
969.2  6137.8125
969  6247.5
968.8  6185.3125
968.6  6166.25
968.4  6127.8125
968.2  6135
968  6130.9375
967.8  6148.125
967.6  5984.6875
967.4  6060.3125
967.2  6009.6875
967  5963.75
966.8  5980
966.6  5890
966.4  5881.25
966.2  5820.9375
966  5873.4375
965.8  5855.625
965.6  5928.75
965.4  5732.1875
965.2  5744.0625
965  5768.4375
964.8  5683.125
964.6  5711.875
964.4  5747.5
964.2  5640.3125
964  5660.625
963.8  5687.8125
963.6  5651.5625
963.4  5588.75
963.2  5624.375
963  5605.3125
962.8  5636.25
962.6  5621.5625
962.4  5622.5
962.2  5600.9375
962  5635
961.8  5569.0625
961.6  5688.75
961.4  5617.5
961.2  5608.75
961  5614.6875
960.8  5592.1875
960.6  5470.9375
960.4  5601.875
960.2  5586.875
960  5602.8125
959.8  5643.75
959.6  5623.75
959.4  5589.0625
959.2  5652.5
959  5652.1875
958.8  5554.6875
958.6  5674.375
958.4  5531.875
958.2  5598.125
958  5570.3125
957.8  5587.5
957.6  5548.4375
957.4  5565.625
957.2  5538.75
957  5616.875
956.8  5566.5625
956.6  5580.9375
956.4  5632.1875
956.2  5543.75
956  5538.75
955.8  5577.8125
955.6  5575.3125
955.4  5495.3125
955.2  5609.0625
955  5511.5625
954.8  5599.375
954.6  5664.6875
954.4  5616.25
954.2  5647.1875
954  5580.9375
953.8  5635.9375
953.6  5664.0625
953.4  5597.5
953.2  5510
953  5571.875
952.8  5517.1875
952.6  5599.375
952.4  5538.4375
952.2  5604.0625
952  5654.0625
951.8  5657.5
951.6  5562.1875
951.4  5517.1875
951.2  5583.125
951  5587.5
950.8  5660
950.6  5550.625
950.4  5661.25
950.2  5650.9375
950  5517.8125
949.8  5611.25
949.6  5591.5625
949.4  5579.6875
949.2  5598.4375
949  5623.125
948.8  5606.25
948.6  5549.0625
948.4  5491.25
948.2  5594.375
948  5460.3125
947.8  5591.5625
947.6  5624.0625
947.4  5560.3125
947.2  5549.0625
947  5489.0625
946.8  5583.125
946.6  5581.25
946.4  5599.375
946.2  5579.375
946  5605
945.8  5593.4375
945.6  5638.4375
945.4  5676.875
945.2  5591.25
945  5662.1875
944.8  5552.1875
944.6  5560.3125
944.4  5655.9375
944.2  5608.75
944  5581.25
943.8  5580.9375
943.6  5515.3125
943.4  5562.1875
943.2  5554.6875
943  5555.625
942.8  5594.375
942.6  5555.3125
942.4  5550
942.2  5526.5625
942  5580.9375
941.8  5563.125
941.6  5624.6875
941.4  5519.375
941.2  5590.9375
941  5552.8125
940.8  5527.8125
940.6  5568.4375
940.4  5534.375
940.2  5596.5625
940  5589.6875
939.8  5611.5625
939.6  5722.5
939.4  5589.375
939.2  5566.5625
939  5641.5625
938.8  5585
938.6  5626.5625
938.4  5574.6875
938.2  5551.875
938  5571.25
937.8  5558.75
937.6  5595.3125
937.4  5572.1875
937.2  5569.375
937  5512.5
936.8  5560.3125
936.6  5621.5625
936.4  5583.75
936.2  5574.0625
936  5561.5625
935.8  5551.5625
935.6  5565
935.4  5612.1875
935.2  5563.125
935  5594.6875
934.8  5600
934.6  5643.125
934.4  5519.375
934.2  5575
934  5553.4375
933.8  5484.6875
933.6  5571.875
933.4  5597.5
933.2  5624.6875
933  5569.6875
932.8  5482.8125
932.6  5574.6875
932.4  5659.0625
932.2  5575.9375
932  5488.4375
931.8  5606.875
931.6  5614.6875
931.4  5609.6875
931.2  5617.5
931  5619.375
930.8  5555.9375
930.6  5625.3125
930.4  5602.5
930.2  5647.8125
930  5576.5625
929.8  5625.9375
929.6  5570.625
929.4  5677.8125
929.2  5627.8125
929  5572.1875
928.8  5595
928.6  5617.5
928.4  5554.375
928.2  5550.3125
928  5559.6875
927.8  5587.1875
927.6  5609.0625
927.4  5595.9375
927.2  5551.875
927  5663.4375
926.8  5543.4375
926.6  5603.125
926.4  5639.6875
926.2  5609.0625
926  5559.6875
925.8  5535
925.6  5564.375
925.4  5611.25
925.2  5491.875
925  5615
924.8  5596.875
924.6  5605
924.4  5601.5625
924.2  5648.125
924  5540.3125
923.8  5559.375
923.6  5587.1875
923.4  5620.9375
923.2  5567.5
923  5582.5
922.8  5565.3125
922.6  5472.5
922.4  5593.75
922.2  5516.5625
922  5503.4375
921.8  5601.875
921.6  5616.25
921.4  5619.6875
921.2  5558.125
921  5524.375
920.8  5543.75
920.6  5562.8125
920.4  5524.375
920.2  5563.75
920  5495.625
919.8  5555.625
919.6  5549.375
919.4  5568.125
919.2  5573.75
919  5549.375
918.8  5466.875
918.6  5621.5625
918.4  5654.0625
918.2  5554.375
918  5534.6875
917.8  5543.125
917.6  5632.8125
917.4  5636.5625
917.2  5501.875
917  5503.75
916.8  5493.125
916.6  5578.4375
916.4  5558.125
916.2  5541.5625
916  5580.3125
915.8  5627.8125
915.6  5509.0625
915.4  5600.9375
915.2  5551.25
915  5583.125
914.8  5513.125
914.6  5479.375
914.4  5538.75
914.2  5498.75
914  5566.875
913.8  5570.9375
913.6  5630
913.4  5568.75
913.2  5558.75
913  5513.75
912.8  5615.625
912.6  5526.5625
912.4  5534.375
912.2  5524.0625
912  5515
911.8  5577.5
911.6  5548.125
911.4  5544.6875
911.2  5572.8125
911  5511.875
910.8  5469.375
910.6  5548.125
910.4  5528.125
910.2  5328.125
910  5599.6875
909.8  5542.5
909.6  5558.125
909.4  5529.375
909.2  5599.0625
909  5598.4375
908.8  5652.1875
908.6  5544.0625
908.4  5554.6875
908.2  5544.375
908  5484.0625
907.8  5454.375
907.6  5578.75
907.4  5530
907.2  5481.875
907  5539.6875
906.8  5510.3125
906.6  5554.375
906.4  5514.6875
906.2  5561.875
906  5476.5625
905.8  5541.875
905.6  5509.375
905.4  5549.375
905.2  5602.5
905  5488.4375
904.8  5523.75
904.6  5591.25
904.4  5501.5625
904.2  5563.75
904  5543.4375
903.8  5603.75
903.6  5593.4375
903.4  5592.1875
903.2  5584.375
903  5583.4375
902.8  5641.875
902.6  5611.5625
902.4  5531.25
902.2  5556.25
902  5468.125
901.8  5523.4375
901.6  5517.1875
901.4  5535.3125
901.2  5469.375
901  5574.375
900.8  5578.4375
900.6  5561.25
900.4  5513.75
900.2  5512.8125
900  5581.875
899.8  5551.875
899.6  5441.5625
899.4  5664.6875
899.2  5581.5625
899  5612.5
898.8  5545.3125
898.6  5633.125
898.4  5541.25
898.2  5560.625
898  5477.8125
897.8  5571.5625
897.6  5527.5
897.4  5464.0625
897.2  5558.75
897  5494.0625
896.8  5505.9375
896.6  5470.3125
896.4  5598.4375
896.2  5486.875
896  5503.4375
895.8  5557.8125
895.6  5558.75
895.4  5499.6875
895.2  5548.75
895  5504.6875
894.8  5576.5625
894.6  5473.125
894.4  5460.9375
894.2  5539.6875
894  5537.1875
893.8  5523.125
893.6  5465
893.4  5481.25
893.2  5492.8125
893  5520.625
892.8  5510
892.6  5603.75
892.4  5492.1875
892.2  5486.875
892  5488.4375
891.8  5506.25
891.6  5535.3125
891.4  5490.9375
891.2  5520.625
891  5599.375
890.8  5480.625
890.6  5463.75
890.4  5473.125
890.2  5534.6875
890  5578.125
889.8  5495
889.6  5534.375
889.4  5521.5625
889.2  5586.875
889  5515.625
888.8  5548.125
888.6  5528.125
888.4  5547.5
888.2  5485
888  5497.1875
887.8  5449.375
887.6  5550.3125
887.4  5544.375
887.2  5547.5
887  5537.1875
886.8  5501.25
886.6  5465
886.4  5532.8125
886.2  5597.5
886  5585.625
885.8  5512.5
885.6  5531.5625
885.4  5518.75
885.2  5423.4375
885  5571.5625
884.8  5485.9375
884.6  5457.5
884.4  5513.75
884.2  5486.25
884  5475
883.8  5497.8125
883.6  5472.5
883.4  5493.4375
883.2  5490.3125
883  5527.8125
882.8  5534.375
882.6  5493.4375
882.4  5430.9375
882.2  5507.5
882  5524.375
881.8  5467.1875
881.6  5449.6875
881.4  5462.8125
881.2  5392.8125
881  5453.75
880.8  5519.6875
880.6  5476.875
880.4  5518.4375
880.2  5511.5625
880  5417.1875
879.8  5408.75
879.6  5517.8125
879.4  5538.125
879.2  5420
879  5480
878.8  5465.625
878.6  5514.375
878.4  5445
878.2  5428.125
878  5477.8125
877.8  5431.25
877.6  5477.1875
877.4  5482.1875
877.2  5416.875
877  5487.5
876.8  5488.125
876.6  5434.0625
876.4  5378.125
876.2  5452.8125
876  5475.3125
875.8  5476.5625
875.6  5477.1875
875.4  5437.8125
875.2  5388.125
875  5435.625
874.8  5436.875
874.6  5470.9375
874.4  5435.625
874.2  5445.3125
874  5454.0625
873.8  5491.25
873.6  5501.5625
873.4  5476.25
873.2  5321.25
873  5420.9375
872.8  5464.375
872.6  5407.5
872.4  5460.3125
872.2  5445.3125
872  5403.75
871.8  5391.25
871.6  5412.8125
871.4  5476.5625
871.2  5457.5
871  5421.875
870.8  5420
870.6  5450.9375
870.4  5442.5
870.2  5406.5625
870  5475.625
869.8  5385.3125
869.6  5459.6875
869.4  5444.375
869.2  5446.875
869  5470.625
868.8  5468.125
868.6  5489.375
868.4  5473.75
868.2  5403.4375
868  5473.125
867.8  5432.5
867.6  5472.8125
867.4  5452.8125
867.2  5446.875
867  5406.5625
866.8  5418.125
866.6  5403.75
866.4  5498.125
866.2  5517.1875
866  5440
865.8  5358.4375
865.6  5526.5625
865.4  5467.8125
865.2  5387.1875
865  5450.9375
864.8  5403.125
864.6  5453.4375
864.4  5431.5625
864.2  5455.625
864  5390.625
863.8  5425
863.6  5466.5625
863.4  5412.1875
863.2  5423.4375
863  5470.9375
862.8  5438.75
862.6  5430.9375
862.4  5436.875
862.2  5400.9375
862  5429.375
861.8  5471.875
861.6  5483.75
861.4  5465.9375
861.2  5422.5
861  5434.6875
860.8  5464.0625
860.6  5477.8125
860.4  5468.75
860.2  5492.1875
860  5474.6875
859.8  5444.0625
859.6  5461.25
859.4  5506.5625
859.2  5506.875
859  5404.375
858.8  5429.6875
858.6  5413.75
858.4  5435.3125
858.2  5434.375
858  5355.3125
857.8  5497.8125
857.6  5486.5625
857.4  5420.9375
857.2  5449.0625
857  5417.1875
856.8  5448.125
856.6  5462.8125
856.4  5426.25
856.2  5448.75
856  5456.5625
855.8  5526.25
855.6  5448.4375
855.4  5412.8125
855.2  5427.5
855  5396.875
854.8  5400
854.6  5497.8125
854.4  5434.6875
854.2  5460.625
854  5516.5625
853.8  5474.375
853.6  5381.25
853.4  5413.75
853.2  5462.8125
853  5462.1875
852.8  5439.375
852.6  5467.5
852.4  5355.9375
852.2  5485
852  5488.125
851.8  5426.875
851.6  5422.5
851.4  5386.25
851.2  5427.1875
851  5512.1875
850.8  5359.375
850.6  5534.6875
850.4  5507.5
850.2  5583.125
850  5488.75
849.8  5472.8125
849.6  5528.75
849.4  5407.8125
849.2  5463.4375
849  5468.75
848.8  5518.75
848.6  5474.375
848.4  5419.0625
848.2  5561.5625
848  5480.625
847.8  5424.375
847.6  5463.125
847.4  5535.3125
847.2  5492.1875
847  5405.3125
846.8  5374.6875
846.6  5390.625
846.4  5428.75
846.2  5454.6875
846  5495.625
845.8  5504.6875
845.6  5416.5625
845.4  5485.9375
845.2  5508.125
845  5519.6875
844.8  5434.6875
844.6  5451.875
844.4  5538.75
844.2  5436.25
844  5412.5
843.8  5444.375
843.6  5467.5
843.4  5499.6875
843.2  5474.0625
843  5446.5625
842.8  5386.875
842.6  5543.125
842.4  5445.9375
842.2  5495
842  5464.0625
841.8  5385.9375
841.6  5390
841.4  5410.625
841.2  5454.375
841  5434.375
840.8  5471.25
840.6  5476.5625
840.4  5367.5
840.2  5450.9375
840  5579.0625
839.8  5497.1875
839.6  5465
839.4  5528.4375
839.2  5356.25
839  5398.4375
838.8  5462.8125
838.6  5424.6875
838.4  5493.75
838.2  5507.8125
838  5439.6875
837.8  5491.5625
837.6  5588.4375
837.4  5544.0625
837.2  5462.8125
837  5628.4375
836.8  5466.25
836.6  5519.375
836.4  5498.4375
836.2  5455.9375
836  5483.4375
835.8  5498.125
835.6  5530.3125
835.4  5491.25
835.2  5520
835  5558.75
834.8  5512.1875
834.6  5546.875
834.4  5564.0625
834.2  5522.5
834  5572.1875
833.8  5592.8125
833.6  5613.4375
833.4  5569.6875
833.2  5600.625
833  5609.375
832.8  5583.75
832.6  5520.625
832.4  5525.625
832.2  5610.3125
832  5668.75
831.8  5661.5625
831.6  5675.3125
831.4  5674.6875
831.2  5730.3125
831  5660
830.8  5701.5625
830.6  5703.4375
830.4  5800.3125
830.2  5754.6875
830  5759.0625
829.8  5824.0625
829.6  5892.8125
829.4  5853.4375
829.2  5820.9375
829  5808.4375
828.8  5828.125
828.6  5825.3125
828.4  5899.6875
828.2  5875.3125
828  5889.6875
827.8  5859.6875
827.6  5801.875
827.4  5870.3125
827.2  5842.5
827  5830.9375
826.8  5814.0625
826.6  5804.0625
826.4  5724.0625
826.2  5828.75
826  5790.9375
825.8  5806.875
825.6  5743.75
825.4  5678.125
825.2  5753.125
825  5735.9375
824.8  5624.0625
824.6  5702.8125
824.4  5759.375
824.2  5682.8125
824  5697.5
823.8  5618.4375
823.6  5614.0625
823.4  5616.5625
823.2  5626.875
823  5623.75
822.8  5585.9375
822.6  5610.3125
822.4  5563.4375
822.2  5523.4375
822  5432.5
821.8  5502.5
821.6  5460.9375
821.4  5478.4375
821.2  5481.875
821  5453.125
820.8  5561.875
820.6  5455
820.4  5428.75
820.2  5429.6875
820  5474.375
819.8  5460
819.6  5392.5
819.4  5415.9375
819.2  5461.25
819  5452.1875
818.8  5365.3125
818.6  5509.375
818.4  5403.4375
818.2  5416.875
818  5338.125
817.8  5287.1875
817.6  5427.1875
817.4  5381.25
817.2  5357.5
817  5311.5625
816.8  5337.5
816.6  5345.3125
816.4  5363.125
816.2  5443.125
816  5356.25
815.8  5343.4375
815.6  5334.375
815.4  5261.25
815.2  5254.375
815  5280.9375
814.8  5258.75
814.6  5299.375
814.4  5290.9375
814.2  5280
814  5324.375
813.8  5264.375
813.6  5300.625
813.4  5313.75
813.2  5321.25
813  5292.5
812.8  5286.5625
812.6  5205.625
812.4  5207.1875
812.2  5274.6875
812  5274.6875
811.8  5266.25
811.6  5315.3125
811.4  5258.125
811.2  5260.9375
811  5355
810.8  5274.0625
810.6  5230
810.4  5225.9375
810.2  5214.375
810  5292.1875
809.8  5190.3125
809.6  5213.125
809.4  5255.625
809.2  5228.4375
809  5272.1875
808.8  5189.375
808.6  5259.375
808.4  5220
808.2  5257.1875
808  5233.125
807.8  5201.25
807.6  5185.9375
807.4  5248.4375
807.2  5239.375
807  5150.625
806.8  5223.125
806.6  5206.875
806.4  5195.9375
806.2  5213.4375
806  5240.625
805.8  5320.3125
805.6  5201.5625
805.4  5206.875
805.2  5248.75
805  5230.625
804.8  5186.25
804.6  5205.625
804.4  5234.375
804.2  5163.125
804  5217.8125
803.8  5147.1875
803.6  5137.5
803.4  5146.25
803.2  5138.125
803  5146.875
802.8  5181.25
802.6  5177.8125
802.4  5143.75
802.2  5207.8125
802  5197.8125
801.8  5211.875
801.6  5154.0625
801.4  5197.5
801.2  5163.125
801  5177.5
800.8  5181.25
800.6  5222.1875
800.4  5138.75
800.2  5154.6875
800  5179.0625
799.8  5216.25
799.6  5136.5625
799.4  5159.0625
799.2  5179.6875
799  5161.5625
798.8  5167.8125
798.6  5150.9375
798.4  5184.0625
798.2  5115.625
798  5217.8125
797.8  5192.8125
797.6  5226.25
797.4  5145.3125
797.2  5257.1875
797  5215.3125
796.8  5295.3125
796.6  5190.3125
796.4  5220.3125
796.2  5211.875
796  5185.9375
795.8  5254.6875
795.6  5267.5
795.4  5238.75
795.2  5254.0625
795  5298.4375
794.8  5169.6875
794.6  5170
794.4  5235
794.2  5225.9375
794  5217.1875
793.8  5185.9375
793.6  5216.25
793.4  5239.6875
793.2  5219.0625
793  5158.75
792.8  5188.75
792.6  5137.1875
792.4  5196.5625
792.2  5156.875
792  5120.625
791.8  5188.125
791.6  5212.5
791.4  5139.0625
791.2  5176.5625
791  5211.5625
790.8  5147.1875
790.6  5062.5
790.4  5207.1875
790.2  5149.6875
790  5233.4375
789.8  5136.25
789.6  5146.875
789.4  5212.8125
789.2  5157.5
789  5170.9375
788.8  5145.3125
788.6  5112.5
788.4  5164.6875
788.2  5121.5625
788  5103.4375
787.8  5173.4375
787.6  5090
787.4  5164.0625
787.2  5190
787  5302.5
786.8  5198.75
786.6  5192.8125
786.4  5146.5625
786.2  5144.375
786  5159.0625
785.8  5154.0625
785.6  5159.0625
785.4  5197.8125
785.2  5159.6875
785  5153.75
784.8  5145.9375
784.6  5254.6875
784.4  5163.75
784.2  5179.375
784  5211.5625
783.8  5225.625
783.6  5251.875
783.4  5131.25
783.2  5171.25
783  5199.375
782.8  5178.4375
782.6  5153.125
782.4  5115.3125
782.2  5122.5
782  5111.875
781.8  5227.5
781.6  5170.3125
781.4  5247.1875
781.2  5192.8125
781  5178.75
780.8  5176.25
780.6  5180.3125
780.4  5204.375
780.2  5199.375
780  5250.625
779.8  5281.5625
779.6  5230.625
779.4  5207.5
779.2  5161.875
779  5227.8125
778.8  5097.8125
778.6  5120
778.4  5185.3125
778.2  5178.75
778  5170.9375
777.8  5074.375
777.6  5145.3125
777.4  5094.375
777.2  5196.875
777  5196.25
776.8  5195.625
776.6  5181.5625
776.4  5165.625
776.2  5162.8125
776  5086.25
775.8  5150.9375
775.6  5091.5625
775.4  5195.625
775.2  5167.1875
775  5140.9375
774.8  5145
774.6  5065.3125
774.4  5173.4375
774.2  5177.1875
774  5156.25
773.8  5080.9375
773.6  5176.875
773.4  5164.375
773.2  5197.5
773  5158.125
772.8  5193.75
772.6  5205.625
772.4  5133.4375
772.2  5096.875
772  5169.0625
771.8  5173.125
771.6  5169.0625
771.4  5120.625
771.2  5115.3125
771  5197.5
770.8  5111.25
770.6  5205
770.4  5115.625
770.2  5161.5625
770  5103.75
769.8  5187.8125
769.6  5193.4375
769.4  5144.6875
769.2  5118.125
769  5202.8125
768.8  5091.875
768.6  5141.875
768.4  5208.4375
768.2  5110.625
768  5195.625
767.8  5144.6875
767.6  5159.375
767.4  5128.4375
767.2  5127.1875
767  5176.5625
766.8  5129.0625
766.6  5192.5
766.4  5113.75
766.2  5065.625
766  5165
765.8  5120.3125
765.6  5182.8125
765.4  5138.4375
765.2  5139.6875
765  5152.8125
764.8  5181.5625
764.6  5194.0625
764.4  5182.8125
764.2  5196.5625
764  5144.6875
763.8  5201.5625
763.6  5276.875
763.4  5168.75
763.2  5177.8125
763  5243.75
762.8  5151.875
762.6  5146.25
762.4  5224.0625
762.2  5259.6875
762  5120.3125
761.8  5216.875
761.6  5206.5625
761.4  5217.5
761.2  5228.4375
761  5294.0625
760.8  5205.9375
760.6  5172.5
760.4  5278.125
760.2  5254.0625
760  5287.5
759.8  5284.6875
759.6  5327.5
759.4  5275.625
759.2  5231.875
759  5301.5625
758.8  5306.25
758.6  5340.3125
758.4  5300.9375
758.2  5283.75
758  5263.75
757.8  5327.8125
757.6  5288.75
757.4  5261.25
757.2  5268.125
757  5246.5625
756.8  5162.5
756.6  5167.8125
756.4  5238.125
756.2  5200.9375
756  5179.375
755.8  5243.125
755.6  5237.5
755.4  5174.0625
755.2  5161.25
755  5134.375
754.8  5109.6875
754.6  5232.1875
754.4  5233.75
754.2  5134.0625
754  5165
753.8  5143.125
753.6  5114.375
753.4  5144.6875
753.2  5280.625
753  5138.4375
752.8  5189.6875
752.6  5108.75
752.4  5121.5625
752.2  5075.625
752  5130.3125
751.8  5125.3125
751.6  5204.375
751.4  5087.8125
751.2  5140.3125
751  5116.875
750.8  5127.8125
750.6  5134.6875
750.4  5170.3125
750.2  5175.3125
750  5124.0625
749.8  5230.9375
749.6  5109.0625
749.4  5093.4375
749.2  5084.0625
749  5165.625
748.8  5107.5
748.6  5176.875
748.4  5151.25
748.2  5202.5
748  5152.8125
747.8  5102.8125
747.6  5035.9375
747.4  5121.875
747.2  5185.9375
747  5137.5
746.8  5128.75
746.6  5147.1875
746.4  5132.8125
746.2  5158.4375
746  5093.4375
745.8  5177.8125
745.6  5147.1875
745.4  5087.8125
745.2  5206.5625
745  5139.375
744.8  5110.625
744.6  5111.25
744.4  5198.4375
744.2  5178.75
744  5161.5625
743.8  5127.8125
743.6  5156.875
743.4  5128.4375
743.2  5206.5625
743  5206.5625
742.8  5149.0625
742.6  5109.375
742.4  5157.1875
742.2  5190
742  5143.75
741.8  5092.5
741.6  5135
741.4  5142.8125
741.2  5115
741  5109.375
740.8  5144.0625
740.6  5169.6875
740.4  5238.125
740.2  5068.125
740  5163.125
739.8  5126.875
739.6  5097.5
739.4  5065.625
739.2  5097.5
739  5066.5625
738.8  5164.6875
738.6  5159.375
738.4  5134.0625
738.2  5077.8125
738  5169.0625
737.8  5171.875
737.6  5182.8125
737.4  5110.3125
737.2  5196.5625
737  5151.25
736.8  5135.3125
736.6  5101.875
736.4  5114.0625
736.2  5181.25
736  5166.5625
735.8  5154.6875
735.6  5179.6875
735.4  5115.3125
735.2  5100.9375
735  5157.5
734.8  5101.875
734.6  5162.5
734.4  5100.625
734.2  5157.1875
734  5118.4375
733.8  5139.375
733.6  5161.25
733.4  5130.9375
733.2  5150.3125
733  5168.4375
732.8  5138.125
732.6  5175.3125
732.4  5175
732.2  5172.1875
732  5217.8125
731.8  5160.3125
731.6  5218.125
731.4  5230.9375
731.2  5176.25
731  5208.125
730.8  5161.25
730.6  5206.25
730.4  5146.875
730.2  5215
730  5188.4375
729.8  5244.0625
729.6  5105
729.4  5059.375
729.2  5154.0625
729  5171.875
728.8  5164.375
728.6  5272.5
728.4  5142.8125
728.2  5095.3125
728  5173.4375
727.8  5192.8125
727.6  5195.9375
727.4  5210.625
727.2  5140.9375
727  5170.9375
726.8  5100
726.6  5237.1875
726.4  5207.8125
726.2  5227.5
726  5088.75
725.8  5224.0625
725.6  5182.8125
725.4  5194.6875
725.2  5174.375
725  5075.9375
724.8  5207.8125
724.6  5183.75
724.4  5199.0625
724.2  5133.75
724  5154.0625
723.8  5270.9375
723.6  5189.6875
723.4  5241.5625
723.2  5193.4375
723  5238.125
722.8  5254.6875
722.6  5240.9375
722.4  5238.125
722.2  5165.625
722  5245.625
721.8  5210.9375
721.6  5245.3125
721.4  5253.75
721.2  5298.75
721  5253.75
720.8  5294.0625
720.6  5357.1875
720.4  5273.125
720.2  5250.3125
720  5269.0625
719.8  5316.5625
719.6  5329.375
719.4  5286.875
719.2  5350.625
719  5334.6875
718.8  5315.625
718.6  5325
718.4  5319.375
718.2  5347.5
718  5402.1875
717.8  5433.4375
717.6  5470.625
717.4  5423.75
717.2  5410.3125
717  5408.75
716.8  5484.375
716.6  5455
716.4  5472.8125
716.2  5408.4375
716  5404.375
715.8  5394.0625
715.6  5366.25
715.4  5265.3125
715.2  5341.875
715  5293.125
714.8  5260
714.6  5303.75
714.4  5303.4375
714.2  5250.9375
714  5198.4375
713.8  5138.4375
713.6  5138.4375
713.4  5137.5
713.2  5157.8125
713  5153.4375
712.8  5180
712.6  5081.25
712.4  5162.8125
712.2  5141.25
712  5120.9375
711.8  5181.5625
711.6  5050.625
711.4  5039.6875
711.2  5137.1875
711  5071.875
710.8  5110.625
710.6  5071.875
710.4  5016.875
710.2  5162.5
710  5096.875
709.8  5115.625
709.6  5093.75
709.4  5196.5625
709.2  5190.9375
709  5230.9375
708.8  5225
708.6  5191.25
708.4  5305.625
708.2  5324.6875
708  5360.625
707.8  5335.9375
707.6  5617.1875
707.4  5511.5625
707.2  5558.75
707  5722.1875
706.8  5778.125
706.6  5933.125
706.4  6020
706.2  6141.25
706  6298.75
705.8  6365.3125
705.6  6490.625
705.4  6686.875
705.2  6704.0625
705  6892.5
704.8  6884.0625
704.6  7089.375
704.4  7064.375
704.2  7094.375
704  7106.5625
703.8  6996.25
703.6  6874.375
703.4  6762.8125
703.2  6652.8125
703  6555.9375
702.8  6353.125
702.6  6230.9375
702.4  6025.625
702.2  5830
702  5787.1875
701.8  5695.625
701.6  5611.5625
701.4  5518.125
701.2  5441.25
701  5346.5625
700.8  5309.6875
700.6  5317.8125
700.4  5222.5
700.2  5137.5
700  5108.4375
699.8  5114.375
699.6  5030.3125
699.4  5054.375
699.2  4991.25
699  4986.875
698.8  5045.3125
698.6  5003.4375
698.4  4980
698.2  4991.25
698  4937.1875
697.8  4945
697.6  4981.25
697.4  4975.625
697.2  4966.25
697  4988.4375
696.8  4971.5625
696.6  5031.5625
696.4  4916.875
696.2  5011.5625
696  4997.5
695.8  4949.0625
695.6  5062.1875
695.4  5006.25
695.2  4970.9375
695  4933.4375
694.8  5015.3125
694.6  5026.25
694.4  4990.625
694.2  5078.4375
694  5025.625
693.8  5025.625
693.6  4928.4375
693.4  5030.625
693.2  4922.1875
693  4949.375
692.8  5020
692.6  4875.625
692.4  4956.5625
692.2  4936.875
692  4955
691.8  4865
691.6  4917.8125
691.4  4859.0625
691.2  4871.25
691  4910
690.8  4879.375
690.6  4918.125
690.4  4882.8125
690.2  4884.0625
690  4825.3125
689.8  4839.375
689.6  4836.25
689.4  4789.0625
689.2  4866.875
689  4883.4375
688.8  4786.25
688.6  4838.75
688.4  4864.6875
688.2  4820.625
688  4879.0625
687.8  4839.6875
687.6  4800.625
687.4  4855.9375
687.2  4858.125
687  4823.125
686.8  4900.3125
686.6  4887.8125
686.4  4833.125
686.2  4848.125
686  4884.0625
685.8  4925.9375
685.6  4905.9375
685.4  4911.5625
685.2  4925
685  4818.75
684.8  4891.5625
684.6  4893.75
684.4  4865.3125
684.2  4854.375
684  4835
683.8  4784.375
683.6  4808.125
683.4  4793.125
683.2  4825.9375
683  4806.25
682.8  4808.75
682.6  4801.875
682.4  4849.0625
682.2  4763.4375
682  4779.0625
681.8  4803.4375
681.6  4782.8125
681.4  4708.4375
681.2  4722.8125
681  4741.25
680.8  4758.125
680.6  4727.8125
680.4  4750.9375
680.2  4756.25
680  4682.5
679.8  4758.125
679.6  4796.25
679.4  4754.6875
679.2  4817.8125
679  4745.625
678.8  4862.8125
678.6  4738.125
678.4  4815.9375
678.2  4748.75
678  4813.4375
677.8  4714.375
677.6  4726.5625
677.4  4797.8125
677.2  4739.6875
677  4810
676.8  4705.9375
676.6  4731.5625
676.4  4639.0625
676.2  4603.125
676  4602.1875
675.8  4698.4375
675.6  4607.1875
675.4  4639.6875
675.2  4680
675  4637.5
674.8  4610.625
674.6  4654.6875
674.4  4610.3125
674.2  4576.25
674  4565.625
673.8  4586.5625
673.6  4603.4375
673.4  4691.5625
673.2  4611.875
673  4608.75
672.8  4653.4375
672.6  4656.5625
672.4  4657.5
672.2  4737.1875
672  4719.0625
671.8  4758.75
671.6  4723.75
671.4  4867.5
671.2  4860
671  4838.4375
670.8  4930.3125
670.6  5090.3125
670.4  5116.25
670.2  5145
670  5230.625
669.8  5305.9375
669.6  5469.6875
669.4  5593.125
669.2  5770.625
669  5900.625
668.8  6073.125
668.6  6258.125
668.4  6562.1875
668.2  6883.75
668  7090
667.8  7305.9375
667.6  7516.5625
667.4  7695.9375
667.2  7983.75
667  8144.0625
666.8  8430
666.6  8485
666.4  8395.625
666.2  8484.0625
666  8265.625
665.8  8255.9375
665.6  7998.75
665.4  7854.375
665.2  7544.6875
665  7250.3125
664.8  6972.8125
664.6  6705.3125
664.4  6413.125
664.2  6153.75
664  5930.9375
663.8  5789.6875
663.6  5595.9375
663.4  5447.8125
663.2  5311.25
663  5160.3125
662.8  5095.3125
662.6  4975.625
662.4  4850.625
662.2  4808.125
662  4749.0625
661.8  4755.3125
661.6  4620
661.4  4565.3125
661.2  4510
661  4486.5625
660.8  4494.0625
660.6  4486.875
660.4  4437.5
660.2  4419.0625
660  4387.5
659.8  4343.75
659.6  4373.4375
659.4  4337.1875
659.2  4342.1875
659  4326.5625
658.8  4265.625
658.6  4341.875
658.4  4328.125
658.2  4340
658  4367.8125
657.8  4368.75
657.6  4431.5625
657.4  4355
657.2  4482.5
657  4387.5
656.8  4396.25
656.6  4387.1875
656.4  4425.3125
656.2  4379.375
656  4390
655.8  4382.8125
655.6  4373.4375
655.4  4381.25
655.2  4335.625
655  4354.375
654.8  4271.25
654.6  4346.5625
654.4  4180
654.2  4225
654  4259.6875
653.8  4174.6875
653.6  4215.625
653.4  4145.625
653.2  4108.75
653  4072.5
652.8  4070.9375
652.6  4083.125
652.4  4042.5
652.2  4070.3125
652  4017.1875
651.8  3955.9375
651.6  4023.4375
651.4  4069.375
651.2  3954.375
651  3963.125
650.8  3949.6875
650.6  3918.125
650.4  3951.875
650.2  3940
650  3981.25
649.8  3932.5
649.6  3906.25
649.4  3915
649.2  3866.25
649  3901.5625
648.8  3933.4375
648.6  3834.0625
648.4  3908.75
648.2  3900
648  3954.375
647.8  3864.6875
647.6  3879.375
647.4  3879.0625
647.2  3944.6875
647  3904.375
646.8  3914.375
646.6  3913.4375
646.4  3870.9375
646.2  3838.4375
646  3933.75
645.8  3850
645.6  3869.6875
645.4  3889.6875
645.2  3914.0625
645  3861.5625
644.8  3836.875
644.6  3899.0625
644.4  3832.8125
644.2  3830.9375
644  3864.6875
643.8  3868.125
643.6  3863.4375
643.4  3886.5625
643.2  3820.625
643  3817.1875
642.8  3889.0625
642.6  3806.5625
642.4  3915.3125
642.2  3823.125
642  3848.4375
641.8  3858.125
641.6  3789.0625
641.4  3964.0625
641.2  3810.9375
641  3799.6875
640.8  3813.4375
640.6  3820.3125
640.4  3862.1875
640.2  3799.375
640  3843.4375
639.8  3869.6875
639.6  3839.375
639.4  3863.75
639.2  3875.625
639  3878.125
638.8  3841.5625
638.6  3813.4375
638.4  3847.5
638.2  3824.0625
638  3821.25
637.8  3825.625
637.6  3766.875
637.4  3855.9375
637.2  3821.25
637  3803.4375
636.8  3840.625
636.6  3781.25
636.4  3799.0625
636.2  3850
636  3868.75
635.8  3855.9375
635.6  3899.0625
635.4  3820.9375
635.2  3875.9375
635  3774.6875
634.8  3818.125
634.6  3812.1875
634.4  3851.875
634.2  3840
634  3786.5625
633.8  3745.3125
633.6  3819.0625
633.4  3800
633.2  3912.5
633  3857.8125
632.8  3859.0625
632.6  3822.5
632.4  3902.8125
632.2  3825.3125
632  3833.75
631.8  3787.5
631.6  3800.9375
631.4  3871.5625
631.2  3804.0625
631  3816.875
630.8  3847.5
630.6  3818.75
630.4  3822.1875
630.2  3765
630  3830
629.8  3775
629.6  3816.875
629.4  3853.4375
629.2  3803.75
629  3735
628.8  3788.4375
628.6  3871.25
628.4  3743.4375
628.2  3821.875
628  3865.9375
627.8  3842.8125
627.6  3732.1875
627.4  3781.5625
627.2  3825.625
627  3752.8125
626.8  3828.4375
626.6  3807.8125
626.4  3770.625
626.2  3794.6875
626  3771.5625
625.8  3741.875
625.6  3845.625
625.4  3809.6875
625.2  3827.8125
625  3789.375
624.8  3808.4375
624.6  3827.1875
624.4  3797.1875
624.2  3764.6875
624  3782.8125
623.8  3829.0625
623.6  3753.125
623.4  3780.9375
623.2  3764.375
623  3791.5625
622.8  3776.5625
622.6  3822.8125
622.4  3708.4375
622.2  3831.5625
622  3780.9375
621.8  3844.0625
621.6  3764.0625
621.4  3779.375
621.2  3746.25
621  3805.9375
620.8  3809.0625
620.6  3736.25
620.4  3802.8125
620.2  3758.125
620  3799.0625
619.8  3804.375
619.6  3771.5625
619.4  3855.3125
619.2  3795.625
619  3868.125
618.8  3880.9375
618.6  3824.375
618.4  3830.625
618.2  3800
618  3806.25
617.8  3767.8125
617.6  3784.0625
617.4  3820.3125
617.2  3788.125
617  3745.9375
616.8  3837.8125
616.6  3760.9375
616.4  3764.6875
616.2  3762.5
616  3814.375
615.8  3760.3125
615.6  3765.625
615.4  3815.9375
615.2  3859.6875
615  3785.625
614.8  3873.75
614.6  3822.1875
614.4  3730.625
614.2  3781.5625
614  3855.9375
613.8  3810.9375
613.6  3858.4375
613.4  3765.9375
613.2  3847.5
613  3864.0625
612.8  3820.625
612.6  3827.5
612.4  3803.75
612.2  3816.875
612  3894.375
611.8  3827.8125
611.6  3810
611.4  3863.125
611.2  3826.5625
611  3809.375
610.8  3771.5625
610.6  3859.0625
610.4  3875.625
610.2  3907.8125
610  3790
609.8  3782.8125
609.6  3747.1875
609.4  3794.6875
609.2  3816.5625
609  3815.9375
608.8  3840.9375
608.6  3756.5625
608.4  3783.125
608.2  3789.375
608  3850
607.8  3778.75
607.6  3800.9375
607.4  3827.1875
607.2  3760.9375
607  3808.75
606.8  3841.875
606.6  3827.5
606.4  3848.75
606.2  3845
606  3760.9375
605.8  3834.375
605.6  3772.5
605.4  3834.6875
605.2  3815.3125
605  3800.625
604.8  3803.4375
604.6  3826.25
604.4  3761.25
604.2  3864.0625
604  3819.6875
603.8  3785.625
603.6  3856.25
603.4  3832.5
603.2  3833.125
603  3835
602.8  3784.375
602.6  3763.125
602.4  3875.625
602.2  3858.125
602  3850.3125
601.8  3848.125
601.6  3833.125
601.4  3829.0625
601.2  3833.75
601  3808.4375
600.8  3914.0625
600.6  3825.9375
600.4  3884.0625
600.2  3846.5625
600  3893.75
599.8  3803.75
599.6  3848.75
599.4  3819.0625
599.2  3800.9375
599  3902.5
598.8  3839.375
598.6  3770.625
598.4  3858.125
598.2  3852.1875
598  3903.125
597.8  3854.0625
597.6  3886.875
597.4  3875.3125
597.2  3862.5
597  3899.6875
596.8  3877.1875
596.6  3861.5625
596.4  3856.875
596.2  3885
596  3871.5625
595.8  3871.25
595.6  3813.125
595.4  3904.375
595.2  3868.4375
595  3823.75
594.8  3862.8125
594.6  3840.9375
594.4  3867.5
594.2  3851.5625
594  3834.0625
593.8  3820
593.6  3824.6875
593.4  3839.6875
593.2  3895.625
593  3798.4375
592.8  3823.75
592.6  3890.9375
592.4  3762.1875
592.2  3841.875
592  3847.5
591.8  3773.125
591.6  3836.5625
591.4  3793.75
591.2  3891.875
591  3809.0625
590.8  3863.125
590.6  3758.125
590.4  3834.0625
590.2  3837.8125
590  3844.375
589.8  3838.125
589.6  3858.4375
589.4  3837.1875
589.2  3772.5
589  3843.75
588.8  3900.9375
588.6  3825
588.4  3809.6875
588.2  3795.625
588  3842.5
587.8  3840.625
587.6  3823.125
587.4  3831.5625
587.2  3805.9375
587  3797.1875
586.8  3794.6875
586.6  3809.375
586.4  3788.4375
586.2  3755.625
586  3831.25
585.8  3824.6875
585.6  3840.3125
585.4  3839.375
585.2  3865.9375
585  3858.125
584.8  3818.75
584.6  3797.1875
584.4  3827.8125
584.2  3869.6875
584  3810.3125
583.8  3801.5625
583.6  3820.9375
583.4  3827.8125
583.2  3785
583  3797.1875
582.8  3832.5
582.6  3918.125
582.4  3812.8125
582.2  3837.5
582  3842.5
581.8  3869.0625
581.6  3852.1875
581.4  3860.625
581.2  3776.875
581  3850.625
580.8  3814.0625
580.6  3830.3125
580.4  3814.6875
580.2  3854.375
580  3831.875
579.8  3818.75
579.6  3880
579.4  3866.25
579.2  3885.625
579  3827.8125
578.8  3856.25
578.6  3828.125
578.4  3865
578.2  3772.5
578  3792.5
577.8  3822.1875
577.6  3814.6875
577.4  3845.3125
577.2  3813.4375
577  3825
576.8  3813.75
576.6  3903.125
576.4  3788.75
576.2  3917.1875
576  3799.6875
575.8  3853.75
575.6  3819.6875
575.4  3823.75
575.2  3826.875
575  3885
574.8  3896.25
574.6  3900.3125
574.4  3805.9375
574.2  3891.25
574  3861.25
573.8  3850.9375
573.6  3889.6875
573.4  3820.625
573.2  3870
573  3859.6875
572.8  3862.8125
572.6  3814.0625
572.4  3895.3125
572.2  3779.6875
572  3843.4375
571.8  3868.75
571.6  3804.6875
571.4  3885
571.2  3847.5
571  3878.75
570.8  3813.4375
570.6  3820.625
570.4  3837.8125
570.2  3895.625
570  3812.8125
569.8  3848.125
569.6  3859.0625
569.4  3891.875
569.2  3853.4375
569  3826.25
568.8  3877.5
568.6  3886.875
568.4  3857.8125
568.2  3875
568  3895
567.8  3935.625
567.6  3876.875
567.4  3888.4375
567.2  3906.875
567  3873.4375
566.8  3858.125
566.6  3832.5
566.4  3860.625
566.2  3845
566  3884.375
565.8  3849.6875
565.6  3843.4375
565.4  3832.1875
565.2  3800.625
565  3909.6875
564.8  3880.9375
564.6  3867.5
564.4  3853.4375
564.2  3853.75
564  3920.9375
563.8  3877.1875
563.6  3803.4375
563.4  3893.4375
563.2  3841.25
563  3855
562.8  3845.625
562.6  3865.625
562.4  3871.25
562.2  3816.875
562  3860.3125
561.8  3873.125
561.6  3826.5625
561.4  3879.375
561.2  3886.875
561  3904.375
560.8  3862.1875
560.6  3886.5625
560.4  3868.125
560.2  3823.75
560  3891.875
559.8  3830
559.6  3824.375
559.4  3888.4375
559.2  3923.4375
559  3826.5625
558.8  3830.3125
558.6  3846.875
558.4  3911.25
558.2  3853.125
558  3901.25
557.8  3890
557.6  3904.6875
557.4  3821.5625
557.2  3931.25
557  3965.3125
556.8  3905
556.6  3888.4375
556.4  3853.125
556.2  3906.875
556  3925.9375
555.8  3868.4375
555.6  3943.125
555.4  3917.5
555.2  3880.9375
555  3888.4375
554.8  3802.5
554.6  3945
554.4  3870.3125
554.2  3906.5625
554  3933.125
553.8  3923.4375
553.6  3996.25
553.4  4001.5625
553.2  3899.375
553  3936.5625
552.8  3955.9375
552.6  3965.3125
552.4  3937.5
552.2  3985.9375
552  3955.625
551.8  3959.6875
551.6  4020.3125
551.4  3966.5625
551.2  3978.125
551  3954.375
550.8  3975.9375
550.6  3923.4375
550.4  3995.9375
550.2  4022.5
550  3996.875
549.8  4100.625
549.6  3943.125
549.4  3995
549.2  3990.3125
549  3913.125
548.8  4021.5625
548.6  3969.6875
548.4  3969.6875
548.2  4008.4375
548  4082.1875
547.8  4032.5
547.6  4082.5
547.4  4064.0625
547.2  4055
547  3913.4375
546.8  4021.875
546.6  4009.6875
546.4  3971.875
546.2  3935.625
546  3910.3125
545.8  3987.5
545.6  3925.9375
545.4  3926.875
545.2  3930.9375
545  3868.4375
544.8  3857.5
544.6  3846.5625
544.4  3827.1875
544.2  3858.125
544  3835.3125
543.8  3807.8125
543.6  3744.375
543.4  3787.8125
543.2  3806.5625
543  3789.6875
542.8  3829.0625
542.6  3755
542.4  3735.625
542.2  3819.0625
542  3721.875
541.8  3716.875
541.6  3735.9375
541.4  3754.375
541.2  3714.375
541  3687.1875
540.8  3703.4375
540.6  3741.25
540.4  3693.4375
540.2  3708.75
540  3743.75
539.8  3731.5625
539.6  3755
539.4  3685
539.2  3731.5625
539  3713.75
538.8  3625.9375
538.6  3731.25
538.4  3665
538.2  3664.6875
538  3775.625
537.8  3676.5625
537.6  3709.6875
537.4  3675
537.2  3607.5
537  3664.0625
536.8  3634.375
536.6  3687.8125
536.4  3575.3125
536.2  3632.1875
536  3686.875
535.8  3616.25
535.6  3662.8125
535.4  3713.125
535.2  3738.4375
535  3720.9375
534.8  3757.8125
534.6  3815.625
534.4  3874.6875
534.2  3887.5
534  4019.0625
533.8  3992.5
533.6  4127.5
533.4  4280
533.2  4458.125
533  4554.375
532.8  4781.5625
532.6  4956.25
532.4  5125.9375
532.2  5425.625
532  5743.125
531.8  5988.75
531.6  6429.6875
531.4  6773.4375
531.2  7059.0625
531  7337.1875
530.8  7533.125
530.6  7460.625
530.4  7289.6875
530.2  7004.375
530  6539.375
529.8  6027.1875
529.6  5438.75
529.4  5045.3125
529.2  4587.8125
529  4218.125
528.8  3933.75
528.6  3803.75
528.4  3742.5
528.2  3691.25
528  3610.3125
527.8  3631.5625
527.6  3560.9375
527.4  3630.3125
527.2  3551.25
527  3489.375
526.8  3550.3125
526.6  3520
526.4  3541.5625
526.2  3551.5625
526  3481.875
525.8  3525.625
525.6  3516.25
525.4  3540.3125
525.2  3467.1875
525  3529.6875
524.8  3480.625
524.6  3535.3125
524.4  3471.25
524.2  3557.5
524  3533.75
523.8  3544.0625
523.6  3560.625
523.4  3566.25
523.2  3540.625
523  3575.625
522.8  3581.875
522.6  3595.3125
522.4  3570.3125
522.2  3696.5625
522  3648.75
521.8  3649.375
521.6  3665.3125
521.4  3735
521.2  3713.125
521  3785.3125
520.8  3809.375
520.6  3728.4375
520.4  3731.25
520.2  3745.3125
520  3723.75
519.8  3678.75
519.6  3635
519.4  3604.375
519.2  3597.5
519  3635
518.8  3609.0625
518.6  3604.6875
518.4  3547.1875
518.2  3621.25
518  3574.6875
517.8  3525.9375
517.6  3463.125
517.4  3516.25
517.2  3501.25
517  3495.3125
516.8  3478.4375
516.6  3516.875
516.4  3497.5
516.2  3461.5625
516  3469.0625
515.8  3423.125
515.6  3418.4375
515.4  3459.0625
515.2  3396.5625
515  3482.1875
514.8  3520
514.6  3495.9375
514.4  3427.5
514.2  3470.625
514  3442.5
513.8  3432.5
513.6  3479.0625
513.4  3408.75
513.2  3482.5
513  3457.5
512.8  3493.4375
512.6  3460.9375
512.4  3472.8125
512.2  3419.0625
512  3452.1875
511.8  3474.375
511.6  3478.75
511.4  3500.9375
511.2  3514.0625
511  3418.75
510.8  3440
510.6  3429.375
510.4  3415.3125
510.2  3530.3125
510  3486.25
509.8  3459.0625
509.6  3485
509.4  3496.875
509.2  3554.375
509  3487.1875
508.8  3508.4375
508.6  3401.25
508.4  3500
508.2  3402.1875
508  3493.75
507.8  3462.8125
507.6  3476.5625
507.4  3495.625
507.2  3451.5625
507  3520
506.8  3511.25
506.6  3512.5
506.4  3523.75
506.2  3505.9375
506  3505
505.8  3537.8125
505.6  3469.375
505.4  3460
505.2  3462.1875
505  3512.1875
504.8  3480.3125
504.6  3454.375
504.4  3440
504.2  3451.5625
504  3518.4375
503.8  3486.875
503.6  3435.9375
503.4  3496.25
503.2  3478.125
503  3433.4375
502.8  3444.6875
502.6  3431.875
502.4  3471.5625
502.2  3461.875
502  3490.3125
501.8  3427.8125
501.6  3509.375
501.4  3384.375
501.2  3443.4375
501  3367.8125
500.8  3415.9375
500.6  3466.875
500.4  3396.5625
500.2  3442.5
500  3490.9375
499.8  3499.6875
499.6  3480.9375
499.4  3545
499.2  3483.125
499  3395
498.8  3449.0625
498.6  3506.875
498.4  3485.9375
498.2  3513.75
498  3587.8125
497.8  3548.4375
497.6  3625
497.4  3622.5
497.2  3681.875
497  3737.8125
496.8  3754.375
496.6  3883.75
496.4  3966.5625
496.2  4089.0625
496  4170.9375
495.8  4166.25
495.6  4268.125
495.4  4211.25
495.2  4117.5
495  4079.6875
494.8  3967.5
494.6  3870.3125
494.4  3699.375
494.2  3618.125
494  3555.9375
493.8  3481.25
493.6  3475.9375
493.4  3446.25
493.2  3359.375
493  3430
492.8  3367.8125
492.6  3370
492.4  3341.875
492.2  3391.25
492  3375.9375
491.8  3370.9375
491.6  3333.75
491.4  3392.5
491.2  3445.625
491  3345.625
490.8  3325.9375
490.6  3406.5625
490.4  3394.6875
490.2  3439.6875
490  3431.25
489.8  3449.0625
489.6  3455.3125
489.4  3546.5625
489.2  3598.125
489  3648.75
488.8  3796.25
488.6  3801.875
488.4  3946.25
488.2  4055.9375
488  4184.0625
487.8  4282.8125
487.6  4410.9375
487.4  4536.5625
487.2  4530
487  4519.0625
486.8  4429.6875
486.6  4367.5
486.4  4152.1875
486.2  4025.9375
486  3953.4375
485.8  3743.75
485.6  3694.0625
485.4  3590.9375
485.2  3517.1875
485  3450
484.8  3462.1875
484.6  3414.375
484.4  3435.9375
484.2  3418.125
484  3373.4375
483.8  3423.75
483.6  3364.375
483.4  3388.75
483.2  3392.1875
483  3400.3125
482.8  3332.5
482.6  3327.8125
482.4  3356.25
482.2  3364.6875
482  3420.9375
481.8  3382.1875
481.6  3360.3125
481.4  3364.375
481.2  3305.3125
481  3431.875
480.8  3344.375
480.6  3359.6875
480.4  3385
480.2  3390.3125
480  3394.375
479.8  3354.375
479.6  3315.3125
479.4  3360.3125
479.2  3434.6875
479  3416.25
478.8  3399.0625
478.6  3417.1875
478.4  3429.375
478.2  3416.25
478  3461.875
477.8  3434.0625
477.6  3454.0625
477.4  3461.25
477.2  3362.8125
477  3415.625
476.8  3511.5625
476.6  3423.125
476.4  3460.9375
476.2  3395.3125
476  3388.125
475.8  3461.875
475.6  3451.5625
475.4  3459.375
475.2  3458.125
475  3460.625
474.8  3467.1875
474.6  3482.1875
474.4  3500.3125
474.2  3470.3125
474  3483.125
473.8  3474.375
473.6  3529.0625
473.4  3489.375
473.2  3553.125
473  3530.9375
472.8  3604.375
472.6  3578.125
472.4  3531.875
472.2  3605.625
472  3595.9375
471.8  3525.625
471.6  3548.75
471.4  3575.3125
471.2  3539.375
471  3538.4375
470.8  3577.8125
470.6  3505.3125
470.4  3530.625
470.2  3537.1875
470  3552.1875
469.8  3562.1875
469.6  3543.75
469.4  3555.625
469.2  3540.3125
469  3465.625
468.8  3484.6875
468.6  3561.25
468.4  3530.3125
468.2  3499.375
468  3547.5
467.8  3489.375
467.6  3481.5625
467.4  3481.5625
467.2  3535
467  3515.9375
466.8  3506.25
466.6  3510.625
466.4  3505.9375
466.2  3518.75
466  3525.9375
465.8  3539.375
465.6  3483.75
465.4  3501.5625
465.2  3557.8125
465  3532.5
464.8  3523.75
464.6  3560.9375
464.4  3546.875
464.2  3579.0625
464  3550.625
463.8  3529.6875
463.6  3511.25
463.4  3539.0625
463.2  3532.5
463  3458.4375
462.8  3492.1875
462.6  3437.5
462.4  3407.5
462.2  3391.875
462  3367.5
461.8  3368.125
461.6  3336.25
461.4  3325.9375
461.2  3286.25
461  3247.8125
460.8  3174.375
460.6  3200.9375
460.4  3179.375
460.2  3155.9375
460  3145.3125
459.8  3092.8125
459.6  3083.75
459.4  3032.5
459.2  3038.4375
459  3063.125
458.8  3047.1875
458.6  3033.75
458.4  3013.125
458.2  3010.3125
458  2948.4375
457.8  2924.375
457.6  2939.6875
457.4  2944.6875
457.2  2975.9375
457  2975.3125
456.8  2970.625
456.6  3036.5625
456.4  3035.3125
456.2  3091.5625
456  3172.5
455.8  3281.5625
455.6  3414.375
455.4  3412.5
455.2  3727.8125
455  3951.5625
454.8  4216.5625
454.6  4671.875
454.4  5247.1875
454.2  6006.5625
454  6824.0625
453.8  7749.375
453.6  8955.9375
453.4  9973.4375
453.2  11127.5
453  11971.875
452.8  12630.938
452.6  12845.938
452.4  12479.688
452.2  11736.875
452  10502.813
451.8  9002.8125
451.6  7522.8125
451.4  6170.625
451.2  5006.5625
451  4201.25
450.8  3590.625
450.6  3141.25
450.4  2832.5
450.2  2690.3125
450  2545.625
449.8  2462.1875
449.6  2461.5625
449.4  2428.125
449.2  2435
449  2450.9375
448.8  2432.5
448.6  2578.125
448.4  2644.0625
448.2  2803.4375
448  2926.25
447.8  3229.6875
447.6  3542.1875
447.4  3986.5625
447.2  4495.625
447  5265.3125
446.8  6137.5
446.6  7172.8125
446.4  8540.3125
446.2  10016.563
446  11713.75
445.8  13278.438
445.6  14914.375
445.4  16015
445.2  16781.875
445  16885.313
444.8  16358.75
444.6  14963.125
444.4  13174.688
444.2  11178.438
444  9067.5
443.8  7368.4375
443.6  5925.9375
443.4  4875.625
443.2  4122.5
443  3624.375
442.8  3334.375
442.6  3088.75
442.4  2847.8125
442.2  2671.25
442  2522.1875
441.8  2411.25
441.6  2281.875
441.4  2181.25
441.2  2156.5625
441  2064.375
440.8  1982.5
440.6  1985.9375
440.4  1885.625
440.2  1885.3125
440  1804.0625
439.8  1660.3125
439.6  1652.1875
439.4  1622.5
439.2  1614.0625
439  1560.625
438.8  1543.4375
438.6  1534.6875
438.4  1508.125
438.2  1479.6875
438  1476.5625
437.8  1456.25
437.6  1465.9375
437.4  1513.75
437.2  1533.125
437  1582.5
436.8  1685.625
436.6  1786.875
436.4  1901.875
436.2  2001.25
436  2099.0625
435.8  2231.875
435.6  2308.75
435.4  2331.875
435.2  2340.9375
435  2382.1875
434.8  2314.6875
434.6  2236.5625
434.4  2123.4375
434.2  2075.9375
434  1958.75
433.8  1917.1875
433.6  1896.5625
433.4  1874.6875
433.2  1868.75
433  1799.6875
432.8  1725.9375
432.6  1642.1875
432.4  1621.25
432.2  1470.9375
432  1420.9375
431.8  1350.9375
431.6  1340.625
431.4  1280.9375
431.2  1268.125
431  1296.875
430.8  1253.4375
430.6  1176.5625
430.4  1226.5625
430.2  1197.1875
430  1204.0625
429.8  1181.25
429.6  1187.8125
429.4  1179.375
429.2  1194.6875
429  1180
428.8  1159.6875
428.6  1176.25
428.4  1180.9375
428.2  1196.25
428  1143.125
427.8  1132.8125
427.6  1168.75
427.4  1142.1875
427.2  1159.375
427  1140.9375
426.8  1140.9375
426.6  1148.125
426.4  1177.5
426.2  1148.75
426  1137.5
425.8  1150.625
425.6  1175.3125
425.4  1159.0625
425.2  1193.4375
425  1166.25
424.8  1175.625
424.6  1207.5
424.4  1149.375
424.2  1162.1875
424  1144.6875
423.8  1141.875
423.6  1124.6875
423.4  1159.375
423.2  1110.625
423  1140
422.8  1157.5
422.6  1165.9375
422.4  1131.875
422.2  1128.125
422  1134.6875
421.8  1114.0625
421.6  1163.4375
421.4  1087.8125
421.2  1130.3125
421  1122.8125
420.8  1141.25
420.6  1131.25
420.4  1101.875
420.2  1106.5625
420  1133.125
419.8  1130
419.6  1059.375
419.4  1100.9375
419.2  1108.4375
419  1125.3125
418.8  1104.375
418.6  1089.0625
418.4  1071.875
418.2  1121.5625
418  1129.6875
417.8  1066.25
417.6  1088.4375
417.4  1102.1875
417.2  1100.3125
417  1109.0625
416.8  1120
416.6  1077.8125
416.4  1070
416.2  1086.875
416  1095
415.8  1050.3125
415.6  1120.625
415.4  1080
415.2  1104.0625
415  1099.6875
414.8  1064.0625
414.6  1075.3125
414.4  1111.5625
414.2  1084.6875
414  1078.4375
413.8  1081.875
413.6  1077.1875
413.4  1092.1875
413.2  1063.75
413  1085.9375
412.8  1070.625
412.6  1071.875
412.4  1079.0625
412.2  1067.1875
412  1046.875
411.8  1099.0625
411.6  1060.9375
411.4  1088.75
411.2  1057.1875
411  1100.9375
410.8  1075.3125
410.6  1064.0625
410.4  1050
410.2  1077.8125
410  1074.0625
409.8  1090
409.6  1080.3125
409.4  1064.375
409.2  1080.9375
409  1066.875
408.8  1052.1875
408.6  1078.4375
408.4  1099.6875
408.2  1077.5
408  1084.375
407.8  1060.3125
407.6  1209.375
407.4  1079.6875
407.2  1066.875
407  1047.8125
406.8  1107.1875
406.6  1089.375
406.4  1084.0625
406.2  1075.3125
406  1071.875
405.8  1072.8125
405.6  1088.75
405.4  1070.9375
405.2  1072.5
405  1078.4375
404.8  1099.375
404.6  1055.9375
404.4  1047.8125
404.2  1060
404  1095.3125
403.8  1065.3125
403.6  1050
403.4  1058.125
403.2  1085.9375
403  1108.4375
402.8  1070.9375
402.6  1113.125
402.4  1082.1875
402.2  1076.5625
402  1050.3125
401.8  1086.25
401.6  1112.8125
401.4  1099.0625
401.2  1078.125
401  1079.0625
400.8  1082.5
400.6  1074.375
400.4  1071.5625
400.2  1095.625
400  1087.8125
399.8  1065.3125
399.6  1090.9375
399.4  1062.5
399.2  1070.3125
399  1063.75
398.8  1063.125
398.6  1109.375
398.4  1048.75
398.2  1076.25
398  1076.25
397.8  1058.4375
397.6  1072.1875
397.4  1071.875
397.2  1048.4375
397  1059.6875
396.8  1057.5
396.6  1048.125
396.4  1088.4375
396.2  1025.3125
396  1047.8125
395.8  1065.625
395.6  1040.9375
395.4  1047.1875
395.2  1090.625
395  1056.25
394.8  1053.75
394.6  1053.125
394.4  1065.3125
394.2  1055
394  1055.3125
393.8  1050
393.6  1054.6875
393.4  1054.375
393.2  1053.125
393  1055.9375
392.8  1010.625
392.6  1014.375
392.4  1071.875
392.2  1080.3125
392  1095.3125
391.8  1047.1875
391.6  1060
391.4  1030
391.2  1039.375
391  1046.875
390.8  1020
390.6  1044.0625
390.4  1039.6875
390.2  1028.75
390  1035.625
389.8  1044.6875
389.6  1026.5625
389.4  1033.125
389.2  1046.25
389  1025.9375
388.8  1031.25
388.6  1076.25
388.4  1051.5625
388.2  1060.9375
388  1032.1875
387.8  1044.375
387.6  1064.375
387.4  1048.4375
387.2  1029.0625
387  1079.375
386.8  1040.3125
386.6  1061.25
386.4  1093.125
386.2  1052.8125
386  1080.625
385.8  1045.3125
385.6  1086.5625
385.4  1094.0625
385.2  1089.375
385  1118.125
384.8  1093.125
384.6  1077.1875
384.4  1101.25
384.2  1114.6875
384  1085
383.8  1090.3125
383.6  1092.1875
383.4  1116.875
383.2  1123.125
383  1117.1875
382.8  1131.5625
382.6  1119.0625
382.4  1124.375
382.2  1089.6875
382  1102.5
381.8  1145.625
381.6  1138.125
381.4  1126.875
381.2  1128.75
381  1147.5
380.8  1110.625
380.6  1091.25
380.4  1096.25
380.2  1114.0625
380  1104.0625
379.8  1075.3125
379.6  1073.75
379.4  1068.75
379.2  1080.625
379  1069.0625
378.8  1077.8125
378.6  1062.1875
378.4  1065.9375
378.2  1072.8125
378  1092.8125
377.8  1090.9375
377.6  1067.8125
377.4  1116.5625
377.2  1071.875
377  1118.125
376.8  1095.3125
376.6  1106.875
376.4  1078.4375
376.2  1103.4375
376  1129.0625
375.8  1121.875
375.6  1122.5
375.4  1103.4375
375.2  1103.125
375  1149.0625
374.8  1120
374.6  1145
374.4  1099.6875
374.2  1113.125
374  1125.3125
373.8  1102.1875
373.6  1119.6875
373.4  1098.75
373.2  1079.0625
373  1048.125
372.8  1011.25
372.6  1048.4375
372.4  1028.125
372.2  1010
372  1011.5625
371.8  987.8125
371.6  991.875
371.4  1007.8125
371.2  985.9375
371  1017.1875
370.8  1012.1875
370.6  979.6875
370.4  983.75
370.2  948.4375
370  973.75
369.8  984.375
369.6  963.75
369.4  976.25
369.2  976.25
369  986.5625
368.8  965.3125
368.6  980
368.4  967.5
368.2  987.5
368  942.1875
367.8  969.375
367.6  950.9375
367.4  955.625
367.2  981.875
367  953.125
366.8  951.25
366.6  954.0625
366.4  962.5
366.2  964.375
366  984.6875
365.8  946.5625
365.6  952.5
365.4  946.875
365.2  944.6875
365  967.5
364.8  951.25
364.6  976.25
364.4  954.375
364.2  984.6875
364  961.5625
363.8  971.5625
363.6  932.5
363.4  919.6875
363.2  968.75
363  953.75
362.8  969.0625
362.6  965
362.4  978.4375
362.2  955
362  985.9375
361.8  972.8125
361.6  963.75
361.4  998.75
361.2  952.8125
361  959.6875
360.8  966.5625
360.6  969.0625
360.4  956.875
360.2  945.625
360  948.75
359.8  987.5
359.6  955.625
359.4  962.8125
359.2  1090.3125
359  954.6875
358.8  977.5
358.6  980.9375
358.4  926.5625
358.2  943.75
358  965.625
357.8  952.8125
357.6  979.6875
357.4  967.8125
357.2  996.875
357  980
356.8  963.75
356.6  950
356.4  993.125
356.2  956.875
356  985.9375
355.8  991.875
355.6  956.25
355.4  968.125
355.2  968.125
355  967.1875
354.8  955.3125
354.6  953.75
354.4  966.5625
354.2  974.0625
354  966.25
353.8  953.4375
353.6  970
353.4  964.375
353.2  1016.5625
353  956.875
352.8  973.4375
352.6  990.9375
352.4  977.1875
352.2  976.25
352  941.5625
351.8  952.8125
351.6  984.0625
351.4  989.0625
351.2  946.875
351  987.5
350.8  970.625
350.6  943.4375
350.4  971.875
350.2  944.6875
350  969.375
349.8  971.5625
349.6  951.5625
349.4  933.4375
349.2  949.6875
349  967.1875
348.8  952.8125
348.6  972.5
348.4  1011.25
348.2  967.1875
348  959.6875
347.8  980.9375
347.6  956.5625
347.4  962.5
347.2  948.125
347  964.375
346.8  960.625
346.6  963.125
346.4  925.9375
346.2  970
346  972.8125
345.8  977.5
345.6  956.875
345.4  943.125
345.2  993.125
345  955.625
344.8  966.5625
344.6  943.4375
344.4  967.1875
344.2  965.9375
344  985
343.8  979.0625
343.6  942.5
343.4  971.5625
343.2  968.4375
343  931.875
342.8  968.4375
342.6  937.5
342.4  950.9375
342.2  947.5
342  978.125
341.8  993.125
341.6  934.6875
341.4  958.125
341.2  950.625
341  995
340.8  958.4375
340.6  979.6875
340.4  966.5625
340.2  956.25
340  964.375
339.8  962.1875
339.6  981.5625
339.4  930.3125
339.2  974.6875
339  980.9375
338.8  978.4375
338.6  978.4375
338.4  969.6875
338.2  1003.4375
338  960
337.8  969.0625
337.6  978.4375
337.4  964.6875
337.2  947.1875
337  976.5625
336.8  964.0625
336.6  953.125
336.4  968.75
336.2  977.8125
336  947.8125
335.8  986.25
335.6  976.875
335.4  933.4375
335.2  935.625
335  954.375
334.8  947.8125
334.6  929.6875
334.4  969.6875
334.2  957.1875
334  959.6875
333.8  969.375
333.6  952.8125
333.4  972.1875
333.2  963.4375
333  962.1875
332.8  985.9375
332.6  946.5625
332.4  936.25
332.2  943.75
332  965.3125
331.8  951.25
331.6  964.375
331.4  925.9375
331.2  942.1875
331  942.8125
330.8  968.4375
330.6  976.25
330.4  986.875
330.2  921.5625
330  947.8125
329.8  966.875
329.6  998.4375
329.4  961.5625
329.2  949.375
329  976.25
328.8  985.625
328.6  961.875
328.4  944.375
328.2  949.0625
328  972.8125
327.8  963.75
327.6  947.8125
327.4  977.8125
327.2  936.5625
327  974.0625
326.8  953.75
326.6  973.125
326.4  953.4375
326.2  959.0625
326  975.9375
325.8  963.4375
325.6  987.5
325.4  966.875
325.2  942.8125
325  954.0625
324.8  979.6875
324.6  983.125
324.4  972.1875
324.2  959.6875
324  955.9375
323.8  974.375
323.6  956.25
323.4  962.5
323.2  971.25
323  991.5625
322.8  950.3125
322.6  981.5625
322.4  985.625
322.2  984.375
322  967.1875
321.8  978.75
321.6  996.875
321.4  996.5625
321.2  1032.5
321  1002.8125
320.8  1030
320.6  987.1875
320.4  968.4375
320.2  975.9375
320  991.875
319.8  967.1875
319.6  1018.75
319.4  964.0625
319.2  973.125
319  984.375
318.8  980.625
318.6  1001.875
318.4  1004.0625
318.2  1014.375
318  975.9375
317.8  973.125
317.6  959.0625
317.4  978.75
317.2  967.1875
317  941.5625
316.8  939.375
316.6  941.875
316.4  975
316.2  942.5
316  946.25
315.8  996.5625
315.6  981.5625
315.4  976.875
315.2  980.625
315  969.0625
314.8  990.3125
314.6  968.125
314.4  975.3125
314.2  987.1875
314  950.625
313.8  994.0625
313.6  974.0625
313.4  961.25
313.2  974.0625
313  981.875
312.8  978.125
312.6  983.125
312.4  970.3125
312.2  950.3125
312  979.375
311.8  960.3125
311.6  962.1875
311.4  965.9375
311.2  962.8125
311  979.375
310.8  945.625
310.6  946.5625
310.4  967.8125
310.2  960.625
310  960.9375
309.8  966.25
309.6  990.625
309.4  954.0625
309.2  962.1875
309  964.375
308.8  1007.5
308.6  995.3125
308.4  965.3125
308.2  992.5
308  955.3125
307.8  997.5
307.6  982.1875
307.4  977.5
307.2  966.5625
307  973.125
306.8  973.4375
306.6  945.625
306.4  973.125
306.2  999.0625
306  953.4375
305.8  982.8125
305.6  960
305.4  967.1875
305.2  968.75
305  975.9375
304.8  926.875
304.6  983.125
304.4  946.875
304.2  965.9375
304  952.5
303.8  961.875
303.6  969.0625
303.4  965.9375
303.2  960.9375
303  955.3125
302.8  977.5
302.6  964.6875
302.4  933.75
302.2  949.6875
302  957.1875
301.8  928.125
301.6  964.375
301.4  960
301.2  942.1875
301  954.375
300.8  984.0625
300.6  955.9375
300.4  953.125
300.2  960
300  942.8125
299.8  973.125
299.6  970
299.4  952.5
299.2  963.75
299  979.0625
298.8  955
298.6  945
298.4  935.625
298.2  964.375
298  960.3125
297.8  979.375
297.6  946.875
297.4  977.5
297.2  991.25
297  950
296.8  949.375
296.6  968.75
296.4  994.6875
296.2  952.1875
296  947.5
295.8  959.6875
295.6  985
295.4  966.25
295.2  961.25
295  957.8125
294.8  959.375
294.6  943.125
294.4  950.9375
294.2  965.625
294  935.3125
293.8  975
293.6  973.75
293.4  987.5
293.2  979.0625
293  974.0625
292.8  974.0625
292.6  949.375
292.4  972.5
292.2  975.625
292  956.875
291.8  951.5625
291.6  980.9375
291.4  986.875
291.2  967.5
291  982.1875
290.8  981.875
290.6  990.3125
290.4  984.375
290.2  983.125
290  978.4375
289.8  992.1875
289.6  981.875
289.4  987.8125
289.2  1006.25
289  968.75
288.8  1010.9375
288.6  1015.9375
288.4  1025
288.2  1020.3125
288  1015
287.8  1049.0625
287.6  1085.3125
287.4  1079.6875
287.2  1093.125
287  1123.4375
286.8  1090.625
286.6  1100.3125
286.4  1122.8125
286.2  1080.3125
286  1084.6875
285.8  1059.6875
285.6  1080.625
285.4  1086.25
285.2  1047.1875
285  1098.75
284.8  1031.5625
284.6  1035
284.4  1007.8125
284.2  956.875
284  1014.0625
283.8  977.5
283.6  969.375
283.4  965.9375
283.2  981.5625
283  967.1875
282.8  967.1875
282.6  969.375
282.4  970.625
282.2  972.1875
282  945.625
281.8  946.25
281.6  929.6875
281.4  973.125
281.2  950
281  965.9375
280.8  938.4375
280.6  966.875
280.4  935.3125
280.2  965
280  957.8125
279.8  985.3125
279.6  954.6875
279.4  933.125
279.2  956.5625
279  950.9375
278.8  987.5
278.6  953.75
278.4  976.25
278.2  922.1875
278  968.125
277.8  955.9375
277.6  947.1875
277.4  978.75
277.2  976.25
277  966.25
276.8  973.4375
276.6  982.1875
276.4  971.875
276.2  1021.25
276  974.375
275.8  944.0625
275.6  975.625
275.4  967.5
275.2  989.375
275  938.125
274.8  983.75
274.6  949.0625
274.4  944.375
274.2  936.875
274  961.25
273.8  959.6875
273.6  933.4375
273.4  953.125
273.2  973.4375
273  953.4375
272.8  939.6875
272.6  950.625
272.4  945.9375
272.2  975.9375
272  980
271.8  1001.875
271.6  954.0625
271.4  958.4375
271.2  956.25
271  981.25
270.8  974.375
270.6  964.6875
270.4  964.6875
270.2  989.6875
270  964.0625
269.8  963.125
269.6  946.875
269.4  961.5625
269.2  965.9375
269  975.9375
268.8  971.5625
268.6  971.25
268.4  951.5625
268.2  939.0625
268  962.8125
267.8  951.5625
267.6  967.5
267.4  997.8125
267.2  981.875
267  972.1875
266.8  930.625
266.6  974.375
266.4  951.25
266.2  971.25
266  974.6875
265.8  957.1875
265.6  934.0625
265.4  944.375
265.2  943.4375
265  969.375
264.8  952.8125
264.6  941.875
264.4  984.6875
264.2  989.6875
264  932.5
263.8  955.625
263.6  947.8125
263.4  964.375
263.2  963.125
263  921.5625
262.8  954.0625
262.6  1001.5625
262.4  970.3125
262.2  968.75
262  965.3125
261.8  968.4375
261.6  983.4375
261.4  963.75
261.2  958.125
261  941.5625
260.8  961.25
260.6  968.75
260.4  930.3125
260.2  934.0625
260  989.375
259.8  958.75
259.6  961.875
259.4  924.6875
259.2  979.0625
259  991.875
258.8  972.5
258.6  955.3125
258.4  962.1875
258.2  990
258  968.4375
257.8  964.375
257.6  958.125
257.4  966.875
257.2  987.8125
257  959.375
256.8  939.375
256.6  962.5
256.4  961.25
256.2  958.4375
256  957.8125
255.8  978.4375
255.6  962.5
255.4  945.9375
255.2  970
255  962.8125
254.8  976.25
254.6  940.9375
254.4  979.6875
254.2  981.875
254  971.875
253.8  951.5625
253.6  959.375
253.4  945.9375
253.2  966.5625
253  960.625
252.8  945.3125
252.6  982.5
252.4  940
252.2  988.125
252  969.375
251.8  987.5
251.6  984.0625
251.4  982.5
251.2  998.125
251  962.8125
250.8  984.0625
250.6  979.375
250.4  955.3125
250.2  1007.8125
250  959.0625
249.8  981.5625
249.6  945
249.4  957.5
249.2  968.75
249  963.4375
248.8  940.3125
248.6  943.4375
248.4  969.0625
248.2  933.4375
248  913.75
247.8  937.8125
247.6  952.8125
247.4  963.4375
247.2  948.4375
247  936.875
246.8  935.625
246.6  974.375
246.4  952.8125
246.2  957.1875
246  970.3125
245.8  945.9375
245.6  960.625
245.4  955
245.2  962.8125
245  990.625
244.8  972.1875
244.6  996.875
244.4  998.125
244.2  1000.3125
244  983.75
243.8  1013.75
243.6  1031.5625
243.4  1025
243.2  1024.0625
243  1031.5625
242.8  1020.625
242.6  1004.375
242.4  1030.3125
242.2  1042.5
242  998.125
241.8  991.25
241.6  975
241.4  970.3125
241.2  991.5625
241  973.4375
240.8  947.1875
240.6  1025.625
240.4  982.1875
240.2  973.75
240  972.5
239.8  942.5
239.6  936.25
239.4  956.875
239.2  913.4375
239  964.375
238.8  930.9375
238.6  965.9375
238.4  943.4375
238.2  952.1875
238  931.5625
237.8  955.3125
237.6  954.0625
237.4  960.3125
237.2  955
237  949.375
236.8  947.5
236.6  956.5625
236.4  945.3125
236.2  983.125
236  935.3125
235.8  980
235.6  960.3125
235.4  979.0625
235.2  935.3125
235  943.125
234.8  961.5625
234.6  978.4375
234.4  949.375
234.2  970.9375
234  1129.6875
233.8  953.125
233.6  987.1875
233.4  984.0625
233.2  960.625
233  977.5
232.8  936.25
232.6  949.375
232.4  991.5625
232.2  961.875
232  977.5
231.8  934.375
231.6  977.8125
231.4  948.4375
231.2  960
231  971.875
230.8  965
230.6  940.9375
230.4  973.4375
230.2  963.125
230  969.6875
229.8  971.5625
229.6  974.0625
229.4  978.4375
229.2  955.9375
229  953.125
228.8  955.625
228.6  973.4375
228.4  985.9375
228.2  933.125
228  941.25
227.8  928.125
227.6  978.125
227.4  957.1875
227.2  955
227  926.25
226.8  931.875
226.6  963.4375
226.4  946.5625
226.2  912.1875
226  909.6875
225.8  957.1875
225.6  965.3125
225.4  950.3125
225.2  955.9375
225  948.4375
224.8  960.3125
224.6  960.3125
224.4  945.3125
224.2  949.0625
224  959.375
223.8  952.8125
223.6  985
223.4  954.6875
223.2  955.625
223  926.25
222.8  952.8125
222.6  955.625
222.4  932.5
222.2  945.9375
222  932.8125
221.8  932.5
221.6  949.6875
221.4  947.1875
221.2  979.6875
221  932.1875
220.8  925
220.6  961.875
220.4  941.5625
220.2  933.125
220  944.0625
219.8  933.75
219.6  936.5625
219.4  958.4375
219.2  965
219  950.625
218.8  949.6875
218.6  949.6875
218.4  1000.625
218.2  953.75
218  932.1875
217.8  947.5
217.6  920.3125
217.4  927.5
217.2  967.5
217  960
216.8  958.4375
216.6  963.4375
216.4  937.1875
216.2  972.8125
216  944.0625
215.8  950.625
215.6  939.375
215.4  983.75
215.2  955.9375
215  949.375
214.8  925
214.6  943.4375
214.4  975.3125
214.2  955.625
214  921.5625
213.8  950.9375
213.6  973.125
213.4  980
213.2  930.625
213  964.375
212.8  944.6875
212.6  937.8125
212.4  975.625
212.2  966.875
212  959.375
211.8  959.375
211.6  958.4375
211.4  981.5625
211.2  946.5625
211  960
210.8  919.375
210.6  949.6875
210.4  949.0625
210.2  941.25
210  948.4375
209.8  909.375
209.6  916.25
209.4  962.1875
209.2  933.4375
209  921.5625
208.8  934.6875
208.6  942.1875
208.4  966.5625
208.2  934.6875
208  968.4375
207.8  924.6875
207.6  962.1875
207.4  963.75
207.2  941.25
207  979.6875
206.8  940.3125
206.6  978.75
206.4  930.9375
206.2  932.8125
206  970.3125
205.8  937.1875
205.6  995
205.4  949.375
205.2  929.0625
205  966.5625
204.8  972.8125
204.6  969.375
204.4  942.8125
204.2  949.6875
204  930.625
203.8  1007.1875
203.6  981.25
203.4  966.5625
203.2  947.1875
203  961.875
202.8  915.625
202.6  966.25
202.4  950.3125
202.2  923.75
202  977.1875
201.8  922.8125
201.6  972.8125
201.4  962.8125
201.2  951.25
201  971.875
200.8  945
200.6  943.4375
200.4  962.5
200.2  973.75
200  947.5
199.8  994.0625
199.6  951.875
199.4  982.5
199.2  989.0625
199  959.375
198.8  950
198.6  964.6875
198.4  972.8125
198.2  954.375
198  962.1875
197.8  963.75
197.6  940.9375
197.4  965.3125
197.2  984.6875
197  981.5625
196.8  959.375
196.6  951.25
196.4  942.8125
196.2  971.25
196  976.875
195.8  965.9375
195.6  976.5625
195.4  965
195.2  997.1875
195  960.3125
194.8  967.8125
194.6  959.6875
194.4  936.875
194.2  983.125
194  971.875
193.8  956.25
193.6  967.8125
193.4  980
193.2  981.875
193  981.5625
192.8  987.8125
192.6  1000.9375
192.4  999.375
192.2  976.5625
192  991.5625
191.8  989.375
191.6  982.5
191.4  995.3125
191.2  955
191  981.5625
190.8  981.25
190.6  971.5625
190.4  976.875
190.2  965.625
190  953.125
189.8  952.5
189.6  961.25
189.4  982.8125
189.2  966.875
189  954.0625
188.8  984.0625
188.6  956.25
188.4  971.5625
188.2  955.625
188  966.875
187.8  956.5625
187.6  974.0625
187.4  955.625
187.2  945
187  969.0625
186.8  940.9375
186.6  958.75
186.4  959.0625
186.2  995.625
186  957.8125
185.8  958.4375
185.6  947.1875
185.4  982.5
185.2  993.4375
185  954.6875
184.8  956.5625
184.6  970
184.4  960
184.2  951.875
184  949.6875
183.8  968.75
183.6  979.6875
183.4  1010.3125
183.2  978.4375
183  972.1875
182.8  979.375
182.6  974.375
182.4  980.3125
182.2  968.75
182  977.1875
181.8  964.6875
181.6  956.5625
181.4  960.9375
181.2  935.9375
181  921.5625
180.8  980.625
180.6  980.9375
180.4  944.375
180.2  981.875
180  911.25
179.8  961.25
179.6  1013.75
179.4  983.75
179.2  972.1875
179  953.4375
178.8  962.1875
178.6  951.5625
178.4  943.75
178.2  985.625
178  965.9375
177.8  978.4375
177.6  952.1875
177.4  940.625
177.2  974.375
177  973.125
176.8  990.625
176.6  963.4375
176.4  950.9375
176.2  966.25
176  959.375
175.8  963.125
175.6  946.875
175.4  967.1875
175.2  961.5625
175  989.375
174.8  952.8125
174.6  965.9375
174.4  967.5
174.2  975
174  962.1875
173.8  968.4375
173.6  969.6875
173.4  980.3125
173.2  958.75
173  943.75
172.8  958.4375
172.6  956.875
172.4  943.4375
172.2  960
172  945.3125
171.8  961.5625
171.6  950.625
171.4  952.1875
171.2  975.625
171  972.5
170.8  974.375
170.6  950
170.4  1002.5
170.2  962.8125
170  1010.625
169.8  985.625
169.6  974.375
169.4  949.6875
169.2  979.0625
169  989.6875
168.8  959.375
168.6  956.25
168.4  952.1875
168.2  943.125
168  953.4375
167.8  965
167.6  938.4375
167.4  953.75
167.2  937.1875
167  956.5625
166.8  936.5625
166.6  957.8125
166.4  965.625
166.2  956.5625
166  977.8125
165.8  966.25
165.6  982.8125
165.4  990.625
165.2  991.25
165  979.375
164.8  1091.875
164.6  978.4375
164.4  1001.25
164.2  1025
164  988.75
163.8  969.6875
163.6  984.6875
163.4  978.125
163.2  988.125
163  967.1875
162.8  985
162.6  983.75
162.4  974.6875
162.2  972.5
162  985.625
161.8  996.25
161.6  969.6875
161.4  999.375
161.2  970.3125
161  984.375
160.8  961.5625
160.6  976.5625
160.4  952.8125
160.2  950.3125
160  961.875
159.8  981.875
159.6  954.375
159.4  962.5
159.2  982.5
159  990.3125
158.8  956.5625
158.6  1008.125
158.4  1012.1875
158.2  1005.9375
158  974.0625
157.8  960.3125
157.6  1013.75
157.4  1030.9375
157.2  983.75
157  990
156.8  970.9375
156.6  990.625
156.4  993.4375
156.2  972.5
156  994.6875
155.8  985.3125
155.6  1014.0625
155.4  1002.8125
155.2  992.8125
155  983.125
154.8  998.4375
154.6  971.5625
154.4  995.625
154.2  1003.4375
154  976.25
153.8  998.75
153.6  999.6875
153.4  974.0625
153.2  961.875
153  983.75
152.8  949.0625
152.6  979.0625
152.4  1016.25
152.2  951.25
152  999.375
151.8  944.375
151.6  975.625
151.4  975.9375
151.2  987.5
151  958.4375
150.8  994.375
150.6  1006.5625
150.4  964.6875
150.2  978.125
150  1014.0625
149.8  978.125
149.6  980.625
149.4  965.9375
149.2  972.5
149  989.6875
148.8  939.375
148.6  956.5625
148.4  959.6875
148.2  974.0625
148  963.75
147.8  987.5
147.6  975.3125
147.4  1027.1875
147.2  978.125
147  978.125
146.8  954.0625
146.6  977.5
146.4  960
146.2  958.75
146  989.6875
145.8  998.4375
145.6  999.375
145.4  1010.9375
145.2  979.0625
145  976.25
144.8  992.8125
144.6  944.6875
144.4  973.125
144.2  972.8125
144  973.125
143.8  989.6875
143.6  960
143.4  989.6875
143.2  1010.625
143  970.9375
142.8  954.6875
142.6  1008.4375
142.4  990.3125
142.2  974.375
142  997.8125
141.8  975.9375
141.6  989.0625
141.4  986.25
141.2  1010.9375
141  972.8125
140.8  978.4375
140.6  1009.6875
140.4  951.5625
140.2  1012.1875
140  1000.9375
139.8  1009.375
139.6  980.625
139.4  1023.125
139.2  999.0625
139  1025.625
138.8  1008.4375
138.6  989.6875
138.4  968.4375
138.2  1020
138  984.6875
137.8  1013.125
137.6  991.5625
137.4  956.5625
137.2  985
137  1009.6875
136.8  977.1875
136.6  972.1875
136.4  1006.875
136.2  991.875
136  961.5625
135.8  996.875
135.6  1012.5
135.4  1006.5625
135.2  987.1875
135  954.6875
134.8  998.4375
134.6  989.0625
134.4  943.4375
134.2  1003.125
134  993.4375
133.8  1017.8125
133.6  990.625
133.4  966.5625
133.2  961.25
133  974.6875
132.8  991.875
132.6  952.8125
132.4  990
132.2  980.9375
132  974.375
131.8  992.5
131.6  961.25
131.4  973.4375
131.2  963.75
131  990.3125
130.8  978.125
130.6  969.375
130.4  1010.3125
130.2  986.25
130  968.125
129.8  1000.3125
129.6  986.5625
129.4  1017.1875
129.2  987.8125
129  975.9375
128.8  998.75
128.6  1024.0625
128.4  1012.8125
128.2  1028.4375
128  1031.25
127.8  1024.6875
127.6  1043.75
127.4  1047.8125
127.2  1068.4375
127  1069.0625
126.8  1055
126.6  1032.8125
126.4  1096.875
126.2  1089.0625
126  1102.1875
125.8  1114.6875
125.6  1122.8125
125.4  1104.375
125.2  1124.375
125  1158.75
124.8  1159.0625
124.6  1173.75
124.4  1170.9375
124.2  1203.4375
124  1141.5625
123.8  1151.875
123.6  1172.5
123.4  1160
123.2  1116.5625
123  1132.1875
122.8  1145
122.6  1108.4375
122.4  1117.5
122.2  1089.6875
122  1110
121.8  1094.375
121.6  1093.4375
121.4  1053.4375
121.2  1057.1875
121  1033.125
120.8  1022.8125
120.6  1018.75
120.4  1014.375
120.2  998.4375
120  1004.6875
119.8  1005.9375
119.6  1000.625
119.4  1036.25
119.2  970.9375
119  983.4375
118.8  981.5625
118.6  953.75
118.4  967.8125
118.2  934.375
118  931.25
117.8  957.5
117.6  1009.6875
117.4  984.6875
117.2  946.25
117  979.375
116.8  984.375
116.6  980.9375
116.4  981.25
116.2  980
116  986.875
115.8  985.625
115.6  964.375
115.4  981.875
115.2  962.1875
115  991.5625
114.8  1014.0625
114.6  985.9375
114.4  929.6875
114.2  995.9375
114  966.875
113.8  934.375
113.6  972.1875
113.4  980.3125
113.2  971.25
113  963.75
112.8  971.25
112.6  963.125
112.4  979.6875
112.2  957.8125
112  950.625
111.8  969.375
111.6  990.9375
111.4  950
111.2  991.25
111  985.3125
110.8  980
110.6  972.1875
110.4  950.3125
110.2  962.8125
110  999.375
109.8  980.3125
109.6  957.5
109.4  965.625
109.2  990
109  941.25
108.8  948.75
108.6  950.9375
108.4  953.4375
108.2  925.9375
108  985.9375
107.8  1000
107.6  965.625
107.4  973.4375
107.2  944.375
107  963.4375
106.8  978.75
106.6  981.5625
106.4  979.375
106.2  982.8125
106  965.625
105.8  990.9375
105.6  951.875
105.4  970.9375
105.2  988.125
105  980.3125
104.8  956.25
104.6  996.25
104.4  1003.75
104.2  993.125
104  967.8125
103.8  1001.875
103.6  944.0625
103.4  970.9375
103.2  965.625
103  980.9375
102.8  985.9375
102.6  1000
102.4  989.375
102.2  987.5
102  992.8125
101.8  1015.9375
101.6  1016.25
101.4  989.375
101.2  963.75
101  1016.5625
100.8  1026.25
100.6  1014.375
100.4  992.5
100.2  988.125
100  1005.625
99.8  1004.375
99.6  970.3125
99.4  985
99.2  993.125
99  976.5625
98.8  1005
98.6  998.4375
98.4  989.6875
98.2  991.5625
98  1026.25
97.8  1014.375
97.6  1010.625
97.4  1022.8125
97.2  1044.375
97  1015.3125
96.8  1010.625
96.6  1021.5625
96.4  1011.25
96.2  1013.75
96  1024.375
95.8  1024.0625
95.6  1019.375
95.4  1038.75
95.2  1023.4375
95  1025.625
94.8  1009.375
94.6  1017.5
94.4  1025.9375
94.2  1022.1875
94  1009.6875
93.8  1024.375
93.6  1033.4375
93.4  1046.25
93.2  1039.375
93  1001.875
92.8  1034.0625
92.6  1037.5
92.4  1056.5625
92.2  1066.5625
92  1018.125
91.8  1011.25
91.6  1069.6875
91.4  1034.6875
91.2  1039.0625
91  1040.625
90.8  1026.875
90.6  1052.5
90.4  1055.3125
90.2  1058.125
90  1075.625
89.8  1075.625
89.6  1050.3125
89.4  1039.6875
89.2  1100.625
89  1081.875
88.8  1041.25
88.6  1085.625
88.4  1088.4375
88.2  1067.5
88  1072.8125
87.8  1075
87.6  1096.5625
87.4  1085.3125
87.2  1083.4375
87  1080
86.8  1109.375
86.6  1087.5
86.4  1102.5
86.2  1103.75
86  1109.375
85.8  1121.25
85.6  1105.3125
85.4  1128.75
85.2  1104.6875
85  1129.6875
84.8  1125
84.6  1126.875
84.4  1122.5
84.2  1100.3125
84  1159.375
83.8  1089.0625
83.6  1152.1875
83.4  1142.5
83.2  1136.25
83  1126.875
82.8  1145.3125
82.6  1123.4375
82.4  1154.0625
82.2  1122.8125
82  1170
81.8  1122.8125
81.6  1176.25
81.4  1152.8125
81.2  1104.375
81  1170.9375
80.8  1185.3125
80.6  1156.875
80.4  1203.125
80.2  1164.375
80  1166.25
79.8  1179.6875
79.6  1130
79.4  1144.0625
79.2  1160.3125
79  1156.5625
78.8  1171.5625
78.6  1150.3125
78.4  1162.8125
78.2  1136.5625
78  1137.1875
77.8  1122.8125
77.6  1100.625
77.4  1124.375
77.2  1112.1875
77  1070.3125
76.8  1092.5
76.6  1088.75
76.4  1065.9375
76.2  1055.3125
76  1026.5625
75.8  1029.0625
75.6  1022.8125
75.4  993.4375
75.2  1027.1875
75  999.6875
74.8  1008.75
74.6  1005.625
74.4  973.125
74.2  954.375
74  998.4375
73.8  977.5
73.6  975.625
73.4  939.375
73.2  960.3125
73  940.9375
72.8  940
72.6  924.375
72.4  908.75
72.2  940.9375
72  911.5625
71.8  892.1875
71.6  912.5
71.4  879.375
71.2  878.125
71  894.6875
70.8  915.625
70.6  874.375
70.4  851.5625
70.2  864.6875
70  899.0625
69.8  863.75
69.6  854.0625
69.4  842.1875
69.2  839.375
69  835.3125
68.8  832.1875
68.6  847.8125
68.4  827.1875
68.2  785.9375
68  771.875
67.8  817.1875
67.6  801.5625
67.4  813.4375
67.2  778.75
67  768.125
66.8  815.625
66.6  788.4375
66.4  760
66.2  783.75
66  768.125
65.8  787.1875
65.6  755
65.4  740.625
65.2  753.125
65  759.6875
64.8  750.3125
64.6  744.0625
64.4  754.0625
64.2  760.625
64  731.875
63.8  728.75
63.6  759.375
63.4  738.75
63.2  756.25
63  762.1875
62.8  719.375
62.6  711.5625
62.4  732.8125
62.2  719.6875
62  725.3125
61.8  720.9375
61.6  724.0625
61.4  761.875
61.2  726.875
61  737.1875
60.8  730.9375
60.6  714.6875
60.4  741.875
60.2  732.1875
60  751.5625
59.8  723.125
59.6  763.4375
59.4  740.3125
59.2  739.375
59  731.875
58.8  735
58.6  685.9375
58.4  707.8125
58.2  762.1875
58  731.5625
57.8  720.3125
57.6  709.0625
57.4  727.5
57.2  710
57  703.125
56.8  752.1875
56.6  722.1875
56.4  711.875
56.2  708.75
56  728.125
55.8  680
55.6  725.3125
55.4  737.5
55.2  715.9375
55  706.25
54.8  714.6875
54.6  750.3125
54.4  714.0625
54.2  726.875
54  715.3125
53.8  705.9375
53.6  693.4375
53.4  708.75
53.2  701.5625
53  725.9375
52.8  720
52.6  745.9375
52.4  725
52.2  733.125
52  706.875
51.8  697.5
51.6  678.75
51.4  710
51.2  715.3125
51  690.625
50.8  708.125
50.6  712.8125
50.4  733.4375
50.2  720
50  694.375
49.8  716.875
49.6  722.8125
49.4  709.0625
49.2  713.125
49  715.625
48.8  726.5625
48.6  725.9375
48.4  742.8125
48.2  721.25
48  731.25
47.8  725.9375
47.6  746.875
47.4  697.1875
47.2  728.75
47  715
46.8  734.6875
46.6  715
46.4  720
46.2  757.8125
46  738.125
45.8  724.6875
45.6  716.25
45.4  721.875
45.2  704.6875
45  729.6875
44.8  718.125
44.6  727.8125
44.4  744.375
44.2  738.75
44  745.625
43.8  724.6875
43.6  741.5625
43.4  733.4375
43.2  737.8125
43  732.8125
42.8  736.875
42.6  730.3125
42.4  749.375
42.2  733.125
42  738.75
41.8  737.5
41.6  723.125
41.4  743.75
41.2  732.5
41  745.9375
40.8  750.625
40.6  725.9375
40.4  763.75
40.2  749.0625
40  725.625
39.8  717.1875
39.6  741.25
39.4  741.5625
39.2  761.25
39  708.4375
38.8  760
38.6  738.75
38.4  734.375
38.2  733.125
38  740
37.8  765.625
37.6  745.9375
37.4  718.75
37.2  786.25
37  739.375
36.8  768.75
36.6  775.3125
36.4  749.375
36.2  754.6875
36  743.75
35.8  739.6875
35.6  727.1875
35.4  732.8125
35.2  731.25
35  729.6875
34.8  745
34.6  714.6875
34.4  735.625
34.2  723.4375
34  742.5
33.8  693.125
33.6  721.25
33.4  721.875
33.2  721.875
33  709.375
32.8  695.9375
32.6  719.6875
32.4  703.125
32.2  706.875
32  703.125
31.8  695.3125
31.6  698.4375
31.4  697.1875
31.2  726.5625
31  712.1875
30.8  711.5625
30.6  693.125
30.4  688.75
30.2  720
30  715.625
29.8  722.8125
29.6  716.5625
29.4  717.8125
29.2  723.125
29  729.375
28.8  754.0625
28.6  779.6875
28.4  769.375
28.2  786.875
28  799.0625
27.8  825.9375
27.6  855.9375
27.4  846.875
27.2  855.625
27  878.75
26.8  847.5
26.6  841.5625
26.4  822.1875
26.2  831.25
26  818.4375
25.8  766.5625
25.6  743.4375
25.4  727.8125
25.2  740.625
25  694.6875
24.8  701.5625
24.6  725.3125
24.4  715
24.2  741.25
24  713.4375
23.8  728.75
23.6  738.4375
23.4  736.875
23.2  767.1875
23  754.0625
22.8  751.5625
22.6  742.8125
22.4  838.125
22.2  790
22  783.4375
21.8  810
21.6  819.0625
21.4  885.625
21.2  906.5625
21  988.4375
20.8  1071.5625
20.6  1194.0625
20.4  1293.75
20.2  1470.9375
20  1644.0625
19.8  1823.125
19.6  2102.5
19.4  2287.8125
19.2  2502.8125
19  2660.3125
18.8  2801.5625
18.6  2854.6875
18.4  2804.6875
18.2  2711.5625
18  2535.625
17.8  2264.0625
17.6  2024.375
17.4  1749.6875
17.2  1499.6875
17  1274.6875
16.8  1087.8125
16.6  920.9375
16.4  843.75
16.2  762.8125
16  705.3125
15.8  625.9375
15.6  614.375
15.4  585.9375
15.2  592.5
15  542.5
14.8  561.25
14.6  548.125
14.4  563.75
14.2  523.125
14  493.75
13.8  518.75
13.6  520.9375
13.4  528.125
13.2  525
13  533.125
12.8  513.4375
12.6  515.9375
12.4  534.6875
12.2  534.0625
12  526.5625
11.8  511.25
11.6  529.6875
11.4  496.5625
11.2  528.125
11  524.375
10.8  539.6875
10.6  556.875
10.4  577.5
10.2  586.875
10  631.25
9.8  625.3125
9.6  674.0625
9.4  680
9.2  668.75
9  710.9375
8.8  725
8.6  740.9375
8.4  740
8.2  714.6875
8  717.5
7.8  696.875
7.6  659.6875
7.4  672.8125
7.2  671.5625
7  660
6.8  667.5
6.6  661.875
6.4  635.3125
6.2  639.375
6  627.8125
5.8  601.5625
5.6  564.375
5.4  587.8125
5.2  580
5  573.75
4.8  527.1875
4.6  555.625
4.4  529.6875
4.2  520
4  543.75
3.8  525.9375
3.6  472.8125
3.4  476.5625
3.2  458.125
3  466.25
2.8  469.6875
2.6  462.1875
2.4  434.6875
2.2  477.5
2  451.25
1.8  454.375
1.6  432.5
1.4  428.75
1.2  434.375
1  458.4375
0.8  434.0625
0.6  468.125
0.4  460
0.2  454.375
-2.2737368e-013  424.6875
-0.2  455
-0.4  446.25
-0.6  408.4375
-0.8  424.6875
-1  449.6875
-1.2  451.25
-1.4  440
-1.6  452.1875
-1.8  433.125
-2  441.875
-2.2  450.9375
-2.4  435
-2.6  425.3125
-2.8  430
-3  445.3125
-3.2  446.875
-3.4  443.125
-3.6  458.4375
-3.8  439.0625
-4  444.375

