# Created by:        SpecsLab Prodigy, Version 4.60.2-r85849 
#
# XY-Serializer Export Settings:
#   Comment Prefix:           #
#   Output meta data:         yes
#   Energy Axis:              Binding Energy
#   Count Rate:               Counts per Second
#   Separate Scan Data:       no
#   Separate Channel Data:    no
#   External Channel Data:    yes
#   Transmission Function:    no
#   ErrorBar:                 no
#   Operation Results:        yes
#   Time Zone Format:         UTC
#
# Group:             Spectrum Group
#
# Region:            C1s
# Acquisition Date:  08/25/22 14:01:43 UTC
# Analysis Method:   XPS
# Analyzer:          Phoibos 100 R6
# Analyzer Lens:     LargeArea:1.5kV
# Analyzer Slit:     1:0.2x20\B:open
# Scan Mode:         FixedAnalyzerTransmission
# Curves/Scan:       1
# Values/Curve:      151
# Dwell Time:        0.8
# Excitation Energy: 1486.61
# Binding Energy:    295
# Pass Energy:       30
# Bias Voltage:      90
# Detector Voltage:  2600
# Eff. Workfunction: 4.309
# Source:            X-Ray Dummy
# Comment:           
#
# Cycle: 0
# Number of Scans: 2
#
# Cycle: 0, Curve: 0
# Acquisition Date: 08/25/22 14:01:43 UTC
#
# ColumnLabels: energy counts/s
#
295  973.125
294.9  916.25
294.8  978.125
294.7  991.25
294.6  982.5
294.5  953.75
294.4  938.125
294.3  946.875
294.2  993.125
294.1  965.625
294  960.625
293.9  958.125
293.8  969.375
293.7  971.25
293.6  961.25
293.5  916.25
293.4  965.625
293.3  933.75
293.2  994.375
293.1  970.625
293  928.75
292.9  913.75
292.8  996.25
292.7  970.625
292.6  1021.25
292.5  973.125
292.4  957.5
292.3  943.75
292.2  946.875
292.1  939.375
292  984.375
291.9  936.25
291.8  978.125
291.7  943.125
291.6  918.75
291.5  935
291.4  974.375
291.3  965.625
291.2  931.25
291.1  994.375
291  932.5
290.9  927.5
290.8  992.5
290.7  960
290.6  954.375
290.5  945
290.4  952.5
290.3  996.25
290.2  947.5
290.1  951.25
290  965.625
289.9  923.125
289.8  927.5
289.7  967.5
289.6  926.25
289.5  971.25
289.4  938.125
289.3  906.25
289.2  935
289.1  937.5
289  905.625
288.9  946.875
288.8  979.375
288.7  985
288.6  948.75
288.5  965.625
288.4  921.25
288.3  935.625
288.2  948.75
288.1  967.5
288  963.125
287.9  1005
287.8  960.625
287.7  959.375
287.6  945.625
287.5  914.375
287.4  986.875
287.3  941.875
287.2  927.5
287.1  922.5
287  967.5
286.9  990.625
286.8  940
286.7  933.75
286.6  958.125
286.5  941.875
286.4  969.375
286.3  941.875
286.2  988.75
286.1  948.125
286  942.5
285.9  936.25
285.8  986.875
285.7  965.625
285.6  986.875
285.5  927.5
285.4  950.625
285.3  956.25
285.2  971.875
285.1  938.125
285  915
284.9  926.25
284.8  980
284.7  964.375
284.6  933.75
284.5  969.375
284.4  986.875
284.3  985
284.2  908.75
284.1  999.375
284  936.25
283.9  936.875
283.8  937.5
283.7  919.375
283.6  1037.5
283.5  950
283.4  961.25
283.3  953.75
283.2  954.375
283.1  948.125
283  976.25
282.9  949.375
282.8  965
282.7  950
282.6  956.875
282.5  942.5
282.4  946.25
282.3  908.125
282.2  913.75
282.1  974.375
282  965.625
281.9  936.875
281.8  953.75
281.7  942.5
281.6  996.875
281.5  997.5
281.4  968.75
281.3  958.125
281.2  935.625
281.1  996.25
281  947.5
280.9  962.5
280.8  955.625
280.7  904.375
280.6  950
280.5  968.125
280.4  975
280.3  972.5
280.2  938.75
280.1  951.875
280  996.25

# Region:            overview
# Acquisition Date:  08/25/22 14:06:13 UTC
# Analysis Method:   XPS
# Analyzer:          Phoibos 100 R6
# Analyzer Lens:     MediumArea:1.5kV
# Analyzer Slit:     1:0.2x20\B:open
# Scan Mode:         FixedAnalyzerTransmission
# Curves/Scan:       1
# Values/Curve:      1205
# Dwell Time:        0.2
# Excitation Energy: 1486.61
# Binding Energy:    1200
# Pass Energy:       50
# Bias Voltage:      90
# Detector Voltage:  2600
# Eff. Workfunction: 4.309
# Source:            X-Ray Dummy
# Comment:           
#
# Cycle: 0
# Number of Scans: 2
#
# Cycle: 0, Curve: 0
# Acquisition Date: 08/25/22 14:06:13 UTC
#
# ColumnLabels: energy counts/s
#
1200  10490
1199  10472.5
1198  10692.5
1197  10577.5
1196  10557.5
1195  10967.5
1194  10777.5
1193  10812.5
1192  10682.5
1191  10717.5
1190  10397.5
1189  10335
1188  10155
1187  9780
1186  10067.5
1185  10012.5
1184  9810
1183  10155
1182  9690
1181  9732.5
1180  9995
1179  9472.5
1178  9445
1177  9515
1176  9720
1175  9670
1174  9672.5
1173  9707.5
1172  9347.5
1171  9432.5
1170  9957.5
1169  9610
1168  9587.5
1167  9825
1166  9850
1165  9535
1164  9555
1163  9625
1162  9590
1161  9605
1160  9792.5
1159  9725
1158  9890
1157  9530
1156  9847.5
1155  9817.5
1154  9600
1153  9562.5
1152  9600
1151  9677.5
1150  9480
1149  9507.5
1148  9450
1147  9470
1146  9477.5
1145  9350
1144  9342.5
1143  9235
1142  8772.5
1141  8477.5
1140  8565
1139  8505
1138  8327.5
1137  8310
1136  7832.5
1135  7890
1134  7822.5
1133  7695
1132  7430
1131  7480
1130  7457.5
1129  7180
1128  7207.5
1127  7262.5
1126  7515
1125  7230
1124  7382.5
1123  7245
1122  7290
1121  7302.5
1120  7407.5
1119  7112.5
1118  7000
1117  7012.5
1116  7245
1115  7287.5
1114  6817.5
1113  7107.5
1112  6927.5
1111  6840
1110  7225
1109  6882.5
1108  7145
1107  7180
1106  6810
1105  7167.5
1104  7052.5
1103  7185
1102  7195
1101  7307.5
1100  7255
1099  7460
1098  7262.5
1097  7592.5
1096  7395
1095  7657.5
1094  7812.5
1093  7937.5
1092  8262.5
1091  8447.5
1090  8850
1089  9810
1088  10700
1087  11082.5
1086  11315
1085  10915
1084  9885
1083  9322.5
1082  8810
1081  8962.5
1080  9372.5
1079  8872.5
1078  8142.5
1077  7367.5
1076  6545
1075  5945
1074  5422.5
1073  5515
1072  5567.5
1071  5487.5
1070  5510
1069  5685
1068  5407.5
1067  5755
1066  5542.5
1065  5465
1064  5360
1063  5620
1062  5595
1061  5492.5
1060  5472.5
1059  5257.5
1058  5377.5
1057  5252.5
1056  4910
1055  5120
1054  5172.5
1053  5185
1052  4927.5
1051  4760
1050  4857.5
1049  4842.5
1048  4740
1047  4580
1046  4817.5
1045  4665
1044  4700
1043  4692.5
1042  4730
1041  4657.5
1040  4650
1039  4745
1038  4722.5
1037  4627.5
1036  4972.5
1035  4605
1034  4532.5
1033  4710
1032  4577.5
1031  4815
1030  4610
1029  4615
1028  4710
1027  4630
1026  4607.5
1025  4745
1024  4720
1023  4385
1022  4435
1021  4475
1020  4507.5
1019  4490
1018  4497.5
1017  4427.5
1016  4440
1015  4545
1014  4810
1013  4762.5
1012  4820
1011  4642.5
1010  4850
1009  4552.5
1008  4845
1007  4767.5
1006  4535
1005  4367.5
1004  4697.5
1003  4560
1002  4657.5
1001  4382.5
1000  4540
999  4817.5
998  4800
997  4837.5
996  4950
995  4855
994  4825
993  4787.5
992  4832.5
991  4455
990  4700
989  4570
988  4585
987  4602.5
986  4645
985  4710
984  4560
983  4567.5
982  4720
981  4590
980  4680
979  4950
978  4745
977  5042.5
976  5390
975  5887.5
974  5812.5
973  5422.5
972  5002.5
971  4742.5
970  4572.5
969  4687.5
968  4467.5
967  4415
966  4290
965  4130
964  4072.5
963  4175
962  3995
961  3930
960  4190
959  4130
958  4152.5
957  4150
956  4165
955  4177.5
954  3937.5
953  3987.5
952  3967.5
951  4217.5
950  4195
949  3992.5
948  3990
947  4165
946  4235
945  4232.5
944  4215
943  4297.5
942  4125
941  4125
940  4017.5
939  3965
938  3937.5
937  4147.5
936  4040
935  4175
934  4155
933  3980
932  4030
931  4137.5
930  4085
929  4235
928  4050
927  4190
926  3917.5
925  3955
924  4050
923  4080
922  4205
921  3960
920  4045
919  4035
918  4092.5
917  3985
916  4217.5
915  4210
914  4000
913  4070
912  4095
911  4132.5
910  4077.5
909  4235
908  4200
907  3930
906  4065
905  4162.5
904  4095
903  4150
902  4152.5
901  4192.5
900  4110
899  3977.5
898  3995
897  4092.5
896  4125
895  4095
894  4037.5
893  4117.5
892  4255
891  4135
890  3920
889  4230
888  4160
887  4062.5
886  4127.5
885  4205
884  4115
883  4162.5
882  4005
881  4022.5
880  4242.5
879  4190
878  3962.5
877  4035
876  4257.5
875  3992.5
874  4180
873  4162.5
872  4092.5
871  4170
870  4050
869  4140
868  4265
867  4285
866  4225
865  4030
864  4100
863  4235
862  4147.5
861  4242.5
860  4135
859  4192.5
858  4177.5
857  4262.5
856  4245
855  4242.5
854  4422.5
853  4520
852  4067.5
851  4232.5
850  4182.5
849  4260
848  4125
847  4360
846  4100
845  4292.5
844  4442.5
843  4302.5
842  4380
841  4282.5
840  4382.5
839  4227.5
838  4242.5
837  4372.5
836  4275
835  4385
834  4240
833  4657.5
832  4680
831  4347.5
830  4827.5
829  4777.5
828  4827.5
827  4645
826  4817.5
825  4642.5
824  4535
823  4465
822  4250
821  4535
820  4387.5
819  4275
818  4220
817  4360
816  4327.5
815  4245
814  4230
813  4260
812  4142.5
811  4235
810  4172.5
809  4380
808  4177.5
807  4245
806  4135
805  4225
804  4297.5
803  4362.5
802  4275
801  4185
800  4120
799  4355
798  4207.5
797  4320
796  4255
795  4325
794  4137.5
793  4235
792  4150
791  4195
790  4355
789  4325
788  4207.5
787  4200
786  4237.5
785  4310
784  4255
783  4310
782  4215
781  4622.5
780  4352.5
779  4285
778  4112.5
777  4422.5
776  4355
775  4300
774  4430
773  4422.5
772  4485
771  4495
770  4350
769  4430
768  4577.5
767  4480
766  4395
765  4622.5
764  4397.5
763  4570
762  4495
761  4635
760  4465
759  4745
758  4597.5
757  4502.5
756  4527.5
755  4392.5
754  4290
753  4440
752  4445
751  4605
750  4370
749  4507.5
748  4377.5
747  4430
746  4552.5
745  4495
744  4522.5
743  4485
742  4527.5
741  4375
740  4390
739  4650
738  4387.5
737  4335
736  4610
735  4440
734  4427.5
733  4580
732  4587.5
731  4570
730  4585
729  4507.5
728  4507.5
727  4590
726  4625
725  4780
724  4837.5
723  4510
722  4615
721  4617.5
720  4802.5
719  4880
718  4847.5
717  5080
716  4752.5
715  4870
714  4680
713  4735
712  4585
711  4670
710  4977.5
709  4895
708  5145
707  5477.5
706  6127.5
705  6752.5
704  6985
703  6400
702  5480
701  4997.5
700  4715
699  4705
698  4650
697  4472.5
696  4587.5
695  4652.5
694  4427.5
693  4695
692  4772.5
691  4480
690  4435
689  4515
688  4757.5
687  4520
686  4670
685  4530
684  4580
683  4707.5
682  4612.5
681  4595
680  4700
679  4807.5
678  4807.5
677  4740
676  4605
675  4592.5
674  4602.5
673  4685
672  4507.5
671  5227.5
670  5212.5
669  6367.5
668  7277.5
667  8615
666  8695
665  7782.5
664  6650
663  5552.5
662  4867.5
661  4605
660  4417.5
659  4390
658  4437.5
657  4572.5
656  4357.5
655  4432.5
654  4120
653  4260
652  4000
651  4000
650  3985
649  4045
648  3860
647  3790
646  3805
645  3925
644  3725
643  3875
642  3800
641  3777.5
640  3915
639  3822.5
638  3847.5
637  3812.5
636  3857.5
635  3860
634  3757.5
633  3930
632  3847.5
631  3815
630  3822.5
629  3625
628  3710
627  3765
626  3787.5
625  3785
624  3862.5
623  3870
622  3732.5
621  3920
620  3977.5
619  3945
618  3895
617  3740
616  3912.5
615  3967.5
614  3950
613  3997.5
612  3827.5
611  3850
610  3730
609  3840
608  3892.5
607  3910
606  3990
605  4042.5
604  4000
603  4117.5
602  4025
601  4037.5
600  4147.5
599  4110
598  4065
597  4102.5
596  4015
595  4320
594  4120
593  4067.5
592  4050
591  4120
590  4200
589  4182.5
588  4110
587  4087.5
586  4020
585  4067.5
584  4155
583  4045
582  3997.5
581  4147.5
580  4070
579  4190
578  4310
577  3965
576  4200
575  4117.5
574  4065
573  4277.5
572  4100
571  4137.5
570  4140
569  4160
568  4247.5
567  4325
566  4250
565  4335
564  4205
563  4177.5
562  4095
561  4242.5
560  4210
559  4317.5
558  4370
557  4082.5
556  4367.5
555  4162.5
554  4330
553  4412.5
552  4382.5
551  4490
550  4377.5
549  4430
548  4610
547  4525
546  4602.5
545  4640
544  4305
543  4517.5
542  4165
541  4315
540  4277.5
539  4225
538  4125
537  4100
536  4442.5
535  4297.5
534  4205
533  4892.5
532  6125
531  8597.5
530  7952.5
529  5345
528  4275
527  4087.5
526  4132.5
525  3982.5
524  4007.5
523  4175
522  4070
521  4375
520  4310
519  4210
518  4140
517  3980
516  4012.5
515  3980
514  4100
513  4102.5
512  4007.5
511  4155
510  4215
509  3972.5
508  4000
507  4042.5
506  4092.5
505  4040
504  4117.5
503  4180
502  3970
501  4035
500  4027.5
499  4100
498  4117.5
497  4345
496  5132.5
495  5107.5
494  4530
493  4100
492  3895
491  3997.5
490  4255
489  4332.5
488  5107.5
487  5265
486  4892.5
485  4367.5
484  3950
483  4030
482  3832.5
481  3870
480  3852.5
479  4032.5
478  4025
477  3940
476  4190
475  4032.5
474  4162.5
473  4305
472  4400
471  4240
470  4167.5
469  4270
468  4157.5
467  4417.5
466  4147.5
465  4455
464  4765
463  4417.5
462  4472.5
461  4085
460  4347.5
459  3940
458  4377.5
457  4062.5
456  4372.5
455  5977.5
454  10060
453  15462.5
452  13697.5
451  7145
450  3875
449  3477.5
448  4585
447  8437.5
446  16637.5
445  21425
444  13667.5
443  5957.5
442  3345
441  2715
440  2375
439  2102.5
438  1930
437  2232.5
436  2835
435  3022.5
434  2512.5
433  2362.5
432  1842.5
431  1525
430  1502.5
429  1412.5
428  1437.5
427  1470
426  1435
425  1510
424  1462.5
423  1505
422  1420
421  1382.5
420  1310
419  1330
418  1392.5
417  1330
416  1330
415  1347.5
414  1367.5
413  1275
412  1425
411  1352.5
410  1395
409  1337.5
408  1277.5
407  1280
406  1330
405  1315
404  1382.5
403  1337.5
402  1380
401  1310
400  1332.5
399  1375
398  1272.5
397  1355
396  1322.5
395  1367.5
394  1297.5
393  1257.5
392  1352.5
391  1317.5
390  1357.5
389  1402.5
388  1382.5
387  1360
386  1387.5
385  1510
384  1512.5
383  1477.5
382  1527.5
381  1487.5
380  1482.5
379  1345
378  1385
377  1470
376  1492.5
375  1445
374  1515
373  1420
372  1295
371  1290
370  1400
369  1272.5
368  1287.5
367  1280
366  1270
365  1262.5
364  1230
363  1185
362  1270
361  1247.5
360  1222.5
359  1232.5
358  1280
357  1302.5
356  1320
355  1245
354  1272.5
353  1280
352  1212.5
351  1255
350  1242.5
349  1285
348  1242.5
347  1242.5
346  1170
345  1395
344  1252.5
343  1295
342  1212.5
341  1375
340  1215
339  1182.5
338  1245
337  1237.5
336  1205
335  1207.5
334  1227.5
333  1417.5
332  1232.5
331  1182.5
330  1345
329  1350
328  1202.5
327  1210
326  1277.5
325  1290
324  1372.5
323  1235
322  1305
321  1352.5
320  1357.5
319  1340
318  1330
317  1305
316  1362.5
315  1357.5
314  1212.5
313  1367.5
312  1305
311  1367.5
310  1397.5
309  1340
308  1212.5
307  1347.5
306  1240
305  1382.5
304  1352.5
303  1342.5
302  1350
301  1200
300  1185
299  1330
298  1292.5
297  1397.5
296  1290
295  1307.5
294  1277.5
293  1237.5
292  1300
291  1340
290  1265
289  1230
288  1232.5
287  1340
286  1292.5
285  1282.5
284  1247.5
283  1352.5
282  1347.5
281  1340
280  1450
279  1400
278  1240
277  1322.5
276  1357.5
275  1407.5
274  1415
273  1297.5
272  1255
271  1375
270  1322.5
269  1312.5
268  1357.5
267  1435
266  1355
265  1332.5
264  1365
263  1330
262  1362.5
261  1235
260  1427.5
259  1262.5
258  1297.5
257  1400
256  1427.5
255  1305
254  1317.5
253  1337.5
252  1377.5
251  1297.5
250  1385
249  1462.5
248  1280
247  1352.5
246  1400
245  1505
244  1390
243  1435
242  1427.5
241  1370
240  1302.5
239  1425
238  1320
237  1435
236  1412.5
235  1360
234  1500
233  1335
232  1385
231  1362.5
230  1340
229  1287.5
228  1447.5
227  1290
226  1335
225  1362.5
224  1305
223  1350
222  1382.5
221  1422.5
220  1302.5
219  1365
218  1287.5
217  1357.5
216  1297.5
215  1307.5
214  1400
213  1460
212  1315
211  1350
210  1367.5
209  1350
208  1375
207  1437.5
206  1317.5
205  1407.5
204  1215
203  1457.5
202  1350
201  1400
200  1255
199  1312.5
198  1387.5
197  1265
196  1457.5
195  1402.5
194  1380
193  1500
192  1405
191  1415
190  1337.5
189  1400
188  1292.5
187  1322.5
186  1380
185  1350
184  1427.5
183  1337.5
182  1362.5
181  1500
180  1350
179  1477.5
178  1392.5
177  1460
176  1405
175  1392.5
174  1410
173  1372.5
172  1350
171  1372.5
170  1427.5
169  1317.5
168  1497.5
167  1375
166  1442.5
165  1490
164  1467.5
163  1450
162  1450
161  1397.5
160  1470
159  1402.5
158  1557.5
157  1497.5
156  1570
155  1535
154  1480
153  1590
152  1482.5
151  1392.5
150  1525
149  1465
148  1472.5
147  1570
146  1385
145  1382.5
144  1437.5
143  1462.5
142  1467.5
141  1540
140  1435
139  1452.5
138  1420
137  1452.5
136  1495
135  1522.5
134  1440
133  1395
132  1532.5
131  1595
130  1495
129  1550
128  1590
127  1577.5
126  1642.5
125  1742.5
124  1800
123  1665
122  1710
121  1467.5
120  1557.5
119  1320
118  1475
117  1420
116  1455
115  1415
114  1372.5
113  1495
112  1557.5
111  1415
110  1497.5
109  1557.5
108  1422.5
107  1437.5
106  1440
105  1605
104  1467.5
103  1425
102  1542.5
101  1512.5
100  1647.5
99  1502.5
98  1647.5
97  1645
96  1477.5
95  1667.5
94  1587.5
93  1620
92  1547.5
91  1627.5
90  1665
89  1735
88  1777.5
87  1710
86  1722.5
85  1640
84  1772.5
83  1802.5
82  1910
81  1832.5
80  1842.5
79  1942.5
78  1945
77  1725
76  1535
75  1607.5
74  1492.5
73  1445
72  1465
71  1415
70  1252.5
69  1347.5
68  1212.5
67  1087.5
66  1225
65  1147.5
64  1082.5
63  1025
62  1117.5
61  1097.5
60  1105
59  1135
58  1070
57  1167.5
56  1070
55  1065
54  1095
53  1100
52  1057.5
51  1040
50  1127.5
49  1047.5
48  1142.5
47  1087.5
46  1105
45  1082.5
44  1160
43  1162.5
42  1145
41  1047.5
40  1112.5
39  1132.5
38  1135
37  1232.5
36  1220
35  1235
34  1137.5
33  1052.5
32  1050
31  1117.5
30  1210
29  1255
28  1240
27  1477.5
26  1327.5
25  1132.5
24  1162.5
23  1207.5
22  1382.5
21  1832.5
20  2830
19  4270
18  3952.5
17  2217.5
16  1285
15  882.5
14  892.5
13  830
12  830
11  770
10  870
9  1092.5
8  1047.5
7  1050
6  957.5
5  887.5
4  890
3  652.5
2  697.5
1  672.5
-2.2737368e-013  680
-1  725
-2  612.5
-3  642.5
-4  590

# Region:            In3d
# Acquisition Date:  08/25/22 14:09:35 UTC
# Analysis Method:   XPS
# Analyzer:          Phoibos 100 R6
# Analyzer Lens:     LargeArea:1.5kV
# Analyzer Slit:     1:0.2x20\B:open
# Scan Mode:         FixedAnalyzerTransmission
# Curves/Scan:       1
# Values/Curve:      231
# Dwell Time:        0.8
# Excitation Energy: 1486.61
# Binding Energy:    460
# Pass Energy:       30
# Bias Voltage:      90
# Detector Voltage:  2600
# Eff. Workfunction: 4.309
# Source:            X-Ray Dummy
# Comment:           
#
# Cycle: 0
# Number of Scans: 2
#
# Cycle: 0, Curve: 0
# Acquisition Date: 08/25/22 14:09:35 UTC
#
# ColumnLabels: energy counts/s
#
460  3334.375
459.9  3313.75
459.8  3347.5
459.7  3250
459.6  3202.5
459.5  3255.625
459.4  3226.875
459.3  3295
459.2  3278.125
459.1  3268.125
459  3176.25
458.9  3235.625
458.8  3208.125
458.7  3280
458.6  3201.25
458.5  3210
458.4  3165
458.3  3300.625
458.2  3256.25
458.1  3211.875
458  3135.625
457.9  3206.25
457.8  3240.625
457.7  3276.875
457.6  3256.875
457.5  3210
457.4  3200
457.3  3267.5
457.2  3257.5
457.1  3272.5
457  3321.25
456.9  3400.625
456.8  3324.375
456.7  3371.875
456.6  3328.75
456.5  3464.375
456.4  3496.875
456.3  3505.625
456.2  3615
456.1  3578.125
456  3718.75
455.9  3838.125
455.8  3811.875
455.7  3926.875
455.6  3993.125
455.5  4109.375
455.4  4185.625
455.3  4387.5
455.2  4580
455.1  4595.625
455  4943.125
454.9  5118.75
454.8  5270
454.7  5625.625
454.6  6031.25
454.5  6270
454.4  6680.625
454.3  7046.25
454.2  7334.375
454.1  8038.125
454  8488.125
453.9  9015.625
453.8  9437.5
453.7  10039.375
453.6  10760.625
453.5  11206.875
453.4  11707.5
453.3  12094.375
453.2  12603.125
453.1  13261.25
453  13378.75
452.9  13638.125
452.8  13694.375
452.7  13866.25
452.6  13709.375
452.5  13278.125
452.4  12813.125
452.3  12423.75
452.2  11737.5
452.1  10961.25
452  10358.75
451.9  9519.375
451.8  8728.75
451.7  7936.875
451.6  7091.875
451.5  6407.5
451.4  5878.75
451.3  5293.125
451.2  4854.375
451.1  4383.125
451  4029.375
450.9  3826.875
450.8  3611.875
450.7  3377.5
450.6  3300
450.5  3155.625
450.4  3094.375
450.3  2980.625
450.2  2918.75
450.1  2902.5
450  2818.125
449.9  2828.75
449.8  2769.375
449.7  2785.625
449.6  2681.25
449.5  2788.125
449.4  2743.75
449.3  2786.25
449.2  2857.5
449.1  2871.875
449  2821.25
448.9  2935.625
448.8  2906.25
448.7  3055.625
448.6  3174.375
448.5  3136.875
448.4  3225.625
448.3  3335.625
448.2  3510
448.1  3602.5
448  3850
447.9  3955
447.8  4233.125
447.7  4370
447.6  4748.75
447.5  4916.875
447.4  5255
447.3  5590
447.2  6172.5
447.1  6408.125
447  6979.375
446.9  7528.75
446.8  7980.625
446.7  8627.5
446.6  9360
446.5  9971.875
446.4  10598.125
446.3  11456.875
446.2  12361.875
446.1  13106.25
446  13913.125
445.9  14771.875
445.8  15550.625
445.7  16312.5
445.6  16963.75
445.5  17308.125
445.4  17677.5
445.3  17976.25
445.2  17928.125
445.1  18041.25
445  17776.875
444.9  17241.875
444.8  16400
444.7  15894.375
444.6  14902.5
444.5  13698.125
444.4  12591.25
444.3  11560.625
444.2  10533.75
444.1  9530.625
444  8541.875
443.9  7611.25
443.8  6837.5
443.7  6131.875
443.6  5440.625
443.5  5019.375
443.4  4600
443.3  4236.875
443.2  4093.125
443.1  3833.125
443  3663.125
442.9  3457.5
442.8  3341.875
442.7  3234.375
442.6  3074.375
442.5  3012.5
442.4  2921.25
442.3  2922.5
442.2  2710
442.1  2629.375
442  2640
441.9  2500.625
441.8  2532.5
441.7  2365.625
441.6  2283.125
441.5  2317.5
441.4  2258.125
441.3  2169.375
441.2  2228.125
441.1  2220
441  2127.5
440.9  2122.5
440.8  2066.875
440.7  2080.625
440.6  1984.375
440.5  1986.875
440.4  1975
440.3  1966.875
440.2  1857.5
440.1  1889.375
440  1800
439.9  1846.25
439.8  1851.25
439.7  1800
439.6  1713.75
439.5  1724.375
439.4  1638.75
439.3  1608.125
439.2  1605
439.1  1654.375
439  1622.5
438.9  1554.375
438.8  1593.75
438.7  1624.375
438.6  1540.625
438.5  1602.5
438.4  1566.875
438.3  1548.75
438.2  1566.875
438.1  1613.125
438  1543.75
437.9  1587.5
437.8  1623.75
437.7  1608.75
437.6  1559.375
437.5  1641.25
437.4  1626.875
437.3  1692.5
437.2  1683.125
437.1  1769.375
437  1760

# Region:            Sn3d
# Acquisition Date:  08/25/22 14:12:43 UTC
# Analysis Method:   XPS
# Analyzer:          Phoibos 100 R6
# Analyzer Lens:     LargeArea:1.5kV
# Analyzer Slit:     1:0.2x20\B:open
# Scan Mode:         FixedAnalyzerTransmission
# Curves/Scan:       1
# Values/Curve:      231
# Dwell Time:        0.8
# Excitation Energy: 1486.61
# Binding Energy:    503
# Pass Energy:       30
# Bias Voltage:      90
# Detector Voltage:  2600
# Eff. Workfunction: 4.309
# Source:            X-Ray Dummy
# Comment:           
#
# Cycle: 0
# Number of Scans: 2
#
# Cycle: 0, Curve: 0
# Acquisition Date: 08/25/22 14:12:43 UTC
#
# ColumnLabels: energy counts/s
#
503  3425
502.9  3373.125
502.8  3414.375
502.7  3441.875
502.6  3481.875
502.5  3402.5
502.4  3431.25
502.3  3436.875
502.2  3428.125
502.1  3353.75
502  3568.125
501.9  3417.5
501.8  3366.25
501.7  3417.5
501.6  3394.375
501.5  3349.375
501.4  3439.375
501.3  3347.5
501.2  3406.875
501.1  3353.75
501  3403.75
500.9  3326.25
500.8  3455.625
500.7  3429.375
500.6  3436.25
500.5  3445
500.4  3514.375
500.3  3401.25
500.2  3450
500.1  3413.75
500  3363.75
499.9  3485
499.8  3452.5
499.7  3437.5
499.6  3365
499.5  3510
499.4  3436.875
499.3  3374.375
499.2  3488.125
499.1  3443.75
499  3408.75
498.9  3407.5
498.8  3320.625
498.7  3344.375
498.6  3438.75
498.5  3490
498.4  3488.75
498.3  3518.75
498.2  3536.25
498.1  3534.375
498  3478.75
497.9  3580.625
497.8  3560
497.7  3572.5
497.6  3624.375
497.5  3673.75
497.4  3651.875
497.3  3691.25
497.2  3776.25
497.1  3791.25
497  3760.625
496.9  3736.25
496.8  3841.25
496.7  3904.375
496.6  3915.625
496.5  3951.25
496.4  3994.375
496.3  4078.75
496.2  4101.875
496.1  4138.75
496  4180
495.9  4145.625
495.8  4095.625
495.7  4150.625
495.6  4150.625
495.5  4210
495.4  4053.75
495.3  4148.125
495.2  4109.375
495.1  4058.75
495  3962.5
494.9  3935.625
494.8  3896.875
494.7  3926.875
494.6  3810
494.5  3740
494.4  3725.625
494.3  3680
494.2  3556.25
494.1  3489.375
494  3531.25
493.9  3481.25
493.8  3464.375
493.7  3476.25
493.6  3451.25
493.5  3385.625
493.4  3411.875
493.3  3378.75
493.2  3432.5
493.1  3350
493  3399.375
492.9  3331.875
492.8  3325.625
492.7  3302.5
492.6  3357.5
492.5  3346.25
492.4  3402.5
492.3  3349.375
492.2  3288.125
492.1  3330.625
492  3331.875
491.9  3320.625
491.8  3389.375
491.7  3395
491.6  3336.25
491.5  3367.5
491.4  3295.625
491.3  3279.375
491.2  3318.125
491.1  3365
491  3333.75
490.9  3312.5
490.8  3236.875
490.7  3374.375
490.6  3316.25
490.5  3366.875
490.4  3432.5
490.3  3332.5
490.2  3401.875
490.1  3376.25
490  3450.625
489.9  3441.25
489.8  3495.625
489.7  3425
489.6  3573.75
489.5  3473.125
489.4  3528.75
489.3  3501.875
489.2  3676.875
489.1  3605
489  3611.25
488.9  3768.75
488.8  3830
488.7  3787.5
488.6  3871.875
488.5  3783.125
488.4  4034.375
488.3  3986.25
488.2  4052.5
488.1  4116.25
488  4215.625
487.9  4183.125
487.8  4214.375
487.7  4243.125
487.6  4340.625
487.5  4411.25
487.4  4431.25
487.3  4347.5
487.2  4413.75
487.1  4468.75
487  4511.25
486.9  4490.625
486.8  4357.5
486.7  4276.25
486.6  4225
486.5  4178.125
486.4  4196.25
486.3  4138.75
486.2  4012.5
486.1  3972.5
486  3898.75
485.9  3828.125
485.8  3750
485.7  3723.125
485.6  3653.75
485.5  3467.5
485.4  3483.125
485.3  3436.875
485.2  3532.5
485.1  3436.875
485  3347.5
484.9  3473.75
484.8  3350
484.7  3364.375
484.6  3400
484.5  3317.5
484.4  3287.5
484.3  3322.5
484.2  3273.125
484.1  3306.25
484  3329.375
483.9  3291.25
483.8  3313.75
483.7  3313.125
483.6  3318.75
483.5  3376.875
483.4  3296.875
483.3  3231.875
483.2  3356.875
483.1  3234.375
483  3335.625
482.9  3305
482.8  3284.375
482.7  3234.375
482.6  3317.5
482.5  3299.375
482.4  3211.25
482.3  3213.125
482.2  3233.125
482.1  3293.75
482  3309.375
481.9  3258.125
481.8  3342.5
481.7  3275.625
481.6  3253.125
481.5  3281.875
481.4  3301.875
481.3  3254.375
481.2  3210
481.1  3268.75
481  3254.375
480.9  3286.875
480.8  3255
480.7  3258.125
480.6  3256.875
480.5  3320
480.4  3278.125
480.3  3318.125
480.2  3226.875
480.1  3303.125
480  3232.5

# Region:            O1s
# Acquisition Date:  08/25/22 14:21:11 UTC
# Analysis Method:   XPS
# Analyzer:          Phoibos 100 R6
# Analyzer Lens:     LargeArea:1.5kV
# Analyzer Slit:     1:0.2x20\B:open
# Scan Mode:         FixedAnalyzerTransmission
# Curves/Scan:       1
# Values/Curve:      111
# Dwell Time:        0.8
# Excitation Energy: 1486.61
# Binding Energy:    538
# Pass Energy:       30
# Bias Voltage:      90
# Detector Voltage:  2600
# Eff. Workfunction: 4.309
# Source:            X-Ray Dummy
# Comment:           
#
# Cycle: 0
# Number of Scans: 6
#
# Cycle: 0, Curve: 0
# Acquisition Date: 08/25/22 14:21:11 UTC
#
# ColumnLabels: energy counts/s
#
538  3706.4583
537.9  3639.375
537.8  3678.75
537.7  3724.5833
537.6  3713.3333
537.5  3700.4167
537.4  3703.75
537.3  3696.4583
537.2  3731.0417
537.1  3701.6667
537  3776.25
536.9  3682.5
536.8  3773.9583
536.7  3742.7083
536.6  3753.5417
536.5  3723.3333
536.4  3791.25
536.3  3791.875
536.2  3800
536.1  3860.8333
536  3818.125
535.9  3829.375
535.8  3803.3333
535.7  3849.7917
535.6  3805.625
535.5  3831.6667
535.4  3815.8333
535.3  3800
535.2  3779.375
535.1  3740.4167
535  3747.9167
534.9  3798.75
534.8  3755.8333
534.7  3767.5
534.6  3847.5
534.5  3733.75
534.4  3813.125
534.3  3785.4167
534.2  3803.9583
534.1  3845.4167
534  3867.7083
533.9  3909.5833
533.8  3847.7083
533.7  3929.375
533.6  4029.375
533.5  4012.5
533.4  4109.1667
533.3  4121.875
533.2  4166.25
533.1  4286.6667
533  4341.6667
532.9  4406.875
532.8  4478.9583
532.7  4621.25
532.6  4739.1667
532.5  4890.8333
532.4  4960.2083
532.3  5140.8333
532.2  5288.5417
532.1  5484.375
532  5571.4583
531.9  5802.7083
531.8  6042.2917
531.7  6283.3333
531.6  6436.6667
531.5  6677.9167
531.4  6854.5833
531.3  7036.875
531.2  7217.9167
531.1  7356.4583
531  7471.25
530.9  7588.9583
530.8  7663.9583
530.7  7607.7083
530.6  7563.3333
530.5  7415.625
530.4  7224.5833
530.3  7006.4583
530.2  6760
530.1  6557.5
530  6222.7083
529.9  5935.625
529.8  5699.5833
529.7  5413.3333
529.6  5070.8333
529.5  4871.4583
529.4  4645.2083
529.3  4425
529.2  4340.8333
529.1  4167.7083
529  4001.25
528.9  3902.2917
528.8  3798.9583
528.7  3787.9167
528.6  3735.8333
528.5  3640.4167
528.4  3695.625
528.3  3629.5833
528.2  3586.0417
528.1  3609.7917
528  3627.7083
527.9  3560
527.8  3565.4167
527.7  3589.7917
527.6  3504.5833
527.5  3557.5
527.4  3527.2917
527.3  3508.5417
527.2  3484.7917
527.1  3502.0833
527  3451.0417

# Region:            Si2p
# Acquisition Date:  08/25/22 14:15:11 UTC
# Analysis Method:   XPS
# Analyzer:          Phoibos 100 R6
# Analyzer Lens:     LargeArea:1.5kV
# Analyzer Slit:     1:0.2x20\B:open
# Scan Mode:         FixedAnalyzerTransmission
# Curves/Scan:       1
# Values/Curve:      71
# Dwell Time:        0.8
# Excitation Energy: 1486.61
# Binding Energy:    107
# Pass Energy:       30
# Bias Voltage:      90
# Detector Voltage:  2600
# Eff. Workfunction: 4.309
# Source:            X-Ray Dummy
# Comment:           
#
# Cycle: 0
# Number of Scans: 2
#
# Cycle: 0, Curve: 0
# Acquisition Date: 08/25/22 14:15:11 UTC
#
# ColumnLabels: energy counts/s
#
107  959.375
106.9  985.625
106.8  977.5
106.7  993.125
106.6  985.625
106.5  951.875
106.4  950.625
106.3  962.5
106.2  960
106.1  945.625
106  969.375
105.9  1022.5
105.8  985
105.7  1016.25
105.6  967.5
105.5  958.75
105.4  964.375
105.3  965
105.2  1011.25
105.1  973.75
105  978.125
104.9  996.875
104.8  997.5
104.7  976.875
104.6  991.25
104.5  958.125
104.4  958.75
104.3  953.125
104.2  1001.875
104.1  1004.375
104  955
103.9  981.25
103.8  1011.25
103.7  1011.25
103.6  1020
103.5  955
103.4  935.625
103.3  973.75
103.2  1020.625
103.1  978.125
103  985.625
102.9  952.5
102.8  961.25
102.7  974.375
102.6  941.25
102.5  978.125
102.4  988.125
102.3  966.875
102.2  950.625
102.1  953.125
102  951.875
101.9  986.875
101.8  988.125
101.7  977.5
101.6  965.625
101.5  946.25
101.4  926.875
101.3  981.875
101.2  1004.375
101.1  985
101  947.5
100.9  963.75
100.8  1009.375
100.7  988.125
100.6  976.25
100.5  1006.875
100.4  955.625
100.3  978.75
100.2  1013.75
100.1  963.125
100  1000.625

