# Created by:        SpecsLab Prodigy, Version 4.60.2-r85849 
#
# XY-Serializer Export Settings:
#   Comment Prefix:           #
#   Output meta data:         yes
#   Energy Axis:              Binding Energy
#   Count Rate:               Counts per Second
#   Separate Scan Data:       no
#   Separate Channel Data:    no
#   External Channel Data:    yes
#   Transmission Function:    no
#   ErrorBar:                 no
#   Operation Results:        yes
#   Time Zone Format:         UTC
#
# Group:             Spectrum Group
#
# Region:            Ba3d
# Acquisition Date:  08/31/22 20:51:30 UTC
# Analysis Method:   XPS
# Analyzer:          Phoibos 100 R6
# Analyzer Lens:     LargeArea:1.5kV
# Analyzer Slit:     1:0.2x20\B:open
# Scan Mode:         FixedAnalyzerTransmission
# Curves/Scan:       1
# Values/Curve:      121
# Dwell Time:        0.8
# Excitation Energy: 1486.61
# Binding Energy:    789
# Pass Energy:       30
# Bias Voltage:      90
# Detector Voltage:  2600
# Eff. Workfunction: 4.309
# Source:            X-Ray Dummy
# Comment:           
#
# Cycle: 0
# Number of Scans: 20
#
# Cycle: 0, Curve: 0
# Acquisition Date: 08/31/22 20:51:30 UTC
#
# ColumnLabels: energy counts/s
#
789  5163.625
788.9  5149.8125
788.8  5129.8125
788.7  5160.5625
788.6  5151.0625
788.5  5145.9375
788.4  5177.25
788.3  5180.375
788.2  5172
788.1  5189.6875
788  5164.1875
787.9  5162.6875
787.8  5168.6875
787.7  5197.8125
787.6  5190.5
787.5  5190.1875
787.4  5216.75
787.3  5222.75
787.2  5220.3125
787.1  5187.25
787  5218.6875
786.9  5204.375
786.8  5202.6875
786.7  5205.5
786.6  5214.4375
786.5  5202.6875
786.4  5182.0625
786.3  5179.75
786.2  5224.75
786.1  5200.0625
786  5189.3125
785.9  5209.6875
785.8  5198.0625
785.7  5208.6875
785.6  5192.1875
785.5  5218.3125
785.4  5225.625
785.3  5208.625
785.2  5218.625
785.1  5179.375
785  5242.75
784.9  5204.0625
784.8  5218.9375
784.7  5242.9375
784.6  5229.75
784.5  5259
784.4  5283.9375
784.3  5267.375
784.2  5292.375
784.1  5320.9375
784  5314.25
783.9  5362.6875
783.8  5382.0625
783.7  5482.5
783.6  5505.3125
783.5  5583.1875
783.4  5638.0625
783.3  5639.125
783.2  5771.625
783.1  5878
783  5995.8125
782.9  6101.5625
782.8  6224.25
782.7  6385.0625
782.6  6483.3125
782.5  6668.625
782.4  6830.4375
782.3  6955.4375
782.2  7167.6875
782.1  7299.125
782  7469.9375
781.9  7544.9375
781.8  7721.4375
781.7  7753.625
781.6  7846.3125
781.5  7872.5625
781.4  7852.25
781.3  7831.375
781.2  7761.75
781.1  7665.875
781  7540.4375
780.9  7319.25
780.8  7226.125
780.7  7058.375
780.6  6849.3125
780.5  6653.875
780.4  6510.75
780.3  6304.125
780.2  6141.3125
780.1  6009.625
780  5875.25
779.9  5756.75
779.8  5673.625
779.7  5571.3125
779.6  5440.4375
779.5  5429.5625
779.4  5371.5
779.3  5291.5
779.2  5273.3125
779.1  5234.1875
779  5186.75
778.9  5191.25
778.8  5182.25
778.7  5143.8125
778.6  5130.6875
778.5  5087.0625
778.4  5079.4375
778.3  5099.1875
778.2  5049.25
778.1  5060.3125
778  5057.625
777.9  5033.1875
777.8  5017.5
777.7  5023.625
777.6  5037.5
777.5  5027.125
777.4  5016.3125
777.3  5027.4375
777.2  4987.75
777.1  4995.875
777  4999.8125

# Region:            O1s(2)
# Acquisition Date:  08/31/22 16:41:49 UTC
# Analysis Method:   XPS
# Analyzer:          Phoibos 100 R6
# Analyzer Lens:     LargeArea:1.5kV
# Analyzer Slit:     1:0.2x20\B:open
# Scan Mode:         FixedAnalyzerTransmission
# Curves/Scan:       1
# Values/Curve:      141
# Dwell Time:        0.8
# Excitation Energy: 1486.61
# Binding Energy:    541
# Pass Energy:       30
# Bias Voltage:      90
# Detector Voltage:  2600
# Eff. Workfunction: 4.309
# Source:            X-Ray Dummy
# Comment:           
#
# Cycle: 0
# Number of Scans: 1
#
# Cycle: 0, Curve: 0
# Acquisition Date: 08/31/22 16:41:49 UTC
#
# ColumnLabels: energy counts/s
#
541  3366.25
540.9  3348.75
540.8  3341.25
540.7  3278.75
540.6  3338.75
540.5  3406.25
540.4  3368.75
540.3  3402.5
540.2  3351.25
540.1  3311.25
540  3430
539.9  3310
539.8  3432.5
539.7  3280
539.6  3380
539.5  3532.5
539.4  3395
539.3  3466.25
539.2  3380
539.1  3438.75
539  3333.75
538.9  3307.5
538.8  3300
538.7  3378.75
538.6  3391.25
538.5  3376.25
538.4  3316.25
538.3  3412.5
538.2  3357.5
538.1  3341.25
538  3340
537.9  3262.5
537.8  3295
537.7  3320
537.6  3441.25
537.5  3418.75
537.4  3497.5
537.3  3293.75
537.2  3447.5
537.1  3447.5
537  3420
536.9  3322.5
536.8  3348.75
536.7  3273.75
536.6  3361.25
536.5  3183.75
536.4  3380
536.3  3305
536.2  3331.25
536.1  3286.25
536  3337.5
535.9  3402.5
535.8  3402.5
535.7  3393.75
535.6  3437.5
535.5  3460
535.4  3372.5
535.3  3376.25
535.2  3382.5
535.1  3376.25
535  3235
534.9  3476.25
534.8  3378.75
534.7  3508.75
534.6  3468.75
534.5  3456.25
534.4  3701.25
534.3  3642.5
534.2  3605
534.1  3583.75
534  3711.25
533.9  3606.25
533.8  3837.5
533.7  3812.5
533.6  3911.25
533.5  3970
533.4  3945
533.3  4107.5
533.2  4105
533.1  4258.75
533  4195
532.9  4425
532.8  4325
532.7  4388.75
532.6  4591.25
532.5  4818.75
532.4  4741.25
532.3  4843.75
532.2  5005
532.1  4948.75
532  5087.5
531.9  5210
531.8  5326.25
531.7  5477.5
531.6  5480
531.5  5581.25
531.4  5652.5
531.3  5637.5
531.2  5853.75
531.1  5670
531  5682.5
530.9  5650
530.8  5733.75
530.7  5715
530.6  5455
530.5  5432.5
530.4  5226.25
530.3  5241.25
530.2  5053.75
530.1  4866.25
530  4651.25
529.9  4530
529.8  4206.25
529.7  4178.75
529.6  4077.5
529.5  3813.75
529.4  3861.25
529.3  3671.25
529.2  3490
529.1  3510
529  3518.75
528.9  3391.25
528.8  3462.5
528.7  3436.25
528.6  3331.25
528.5  3443.75
528.4  3278.75
528.3  3287.5
528.2  3260
528.1  3317.5
528  3216.25
527.9  3081.25
527.8  3330
527.7  3190
527.6  3248.75
527.5  3335
527.4  3288.75
527.3  3268.75
527.2  3317.5
527.1  3290
527  3225

# Region:            C1s
# Acquisition Date:  09/01/22 00:10:33 UTC
# Analysis Method:   XPS
# Analyzer:          Phoibos 100 R6
# Analyzer Lens:     LargeArea:1.5kV
# Analyzer Slit:     1:0.2x20\B:open
# Scan Mode:         FixedAnalyzerTransmission
# Curves/Scan:       1
# Values/Curve:      151
# Dwell Time:        0.8
# Excitation Energy: 1486.61
# Binding Energy:    295
# Pass Energy:       30
# Bias Voltage:      90
# Detector Voltage:  2600
# Eff. Workfunction: 4.309
# Source:            X-Ray Dummy
# Comment:           
#
# Cycle: 0
# Number of Scans: 50
#
# Cycle: 0, Curve: 0
# Acquisition Date: 09/01/22 00:10:33 UTC
#
# ColumnLabels: energy counts/s
#
295  982.4
294.9  991.7
294.8  982.75
294.7  981.3
294.6  972.725
294.5  987.325
294.4  986.6
294.3  976.125
294.2  981.75
294.1  981.525
294  985.425
293.9  984.725
293.8  977.5
293.7  978.925
293.6  988
293.5  980.925
293.4  979.7
293.3  980.325
293.2  973.1
293.1  983.15
293  987.9
292.9  987.35
292.8  981.075
292.7  976.425
292.6  988.475
292.5  976.625
292.4  987.025
292.3  984.175
292.2  995.925
292.1  977.5
292  990.5
291.9  987.3
291.8  983.275
291.7  979.675
291.6  987.325
291.5  985.75
291.4  996.375
291.3  990.95
291.2  989.525
291.1  998.225
291  997.925
290.9  1000.775
290.8  1007.05
290.7  1001.275
290.6  1004.625
290.5  1017.975
290.4  1014.15
290.3  1025.975
290.2  1018.575
290.1  1028.575
290  1023.85
289.9  1029.225
289.8  1021.9
289.7  1033.45
289.6  1042
289.5  1038.25
289.4  1037.15
289.3  1034.075
289.2  1040.85
289.1  1039.15
289  1044.25
288.9  1043.4
288.8  1042.75
288.7  1046.875
288.6  1059.05
288.5  1054.675
288.4  1056.825
288.3  1062.125
288.2  1066.35
288.1  1064.075
288  1075.075
287.9  1075.725
287.8  1082.175
287.7  1095.9
287.6  1108.075
287.5  1124.125
287.4  1134.65
287.3  1147.6
287.2  1158.225
287.1  1182.575
287  1202.8
286.9  1221.35
286.8  1232.175
286.7  1257.05
286.6  1283.6
286.5  1295.975
286.4  1312.025
286.3  1341.05
286.2  1360.35
286.1  1387.675
286  1395.425
285.9  1409.125
285.8  1413.575
285.7  1420.625
285.6  1427.025
285.5  1427.925
285.4  1427.5
285.3  1419.9
285.2  1387
285.1  1363
285  1331.175
284.9  1309.875
284.8  1281.35
284.7  1248.525
284.6  1206.025
284.5  1185.675
284.4  1155
284.3  1133.65
284.2  1110.75
284.1  1086.35
284  1073.5
283.9  1040.1
283.8  1037.9
283.7  1027.025
283.6  1010.825
283.5  1000.5
283.4  1006.6
283.3  992.475
283.2  983.9
283.1  988.675
283  989.15
282.9  983.875
282.8  984.625
282.7  973.725
282.6  981.3
282.5  973.925
282.4  971.675
282.3  966.625
282.2  965.975
282.1  965.95
282  973.25
281.9  967.15
281.8  969.175
281.7  963.475
281.6  972.45
281.5  973.4
281.4  972.375
281.3  970.05
281.2  963.05
281.1  968.2
281  969.825
280.9  970.65
280.8  970.5
280.7  973.075
280.6  960.575
280.5  965.875
280.4  964.85
280.3  969.4
280.2  971.125
280.1  966.375
280  971.475

# Region:            N1s
# Acquisition Date:  09/01/22 01:33:46 UTC
# Analysis Method:   XPS
# Analyzer:          Phoibos 100 R6
# Analyzer Lens:     LargeArea:1.5kV
# Analyzer Slit:     1:0.2x20\B:open
# Scan Mode:         FixedAnalyzerTransmission
# Curves/Scan:       1
# Values/Curve:      121
# Dwell Time:        0.8
# Excitation Energy: 1486.61
# Binding Energy:    409
# Pass Energy:       30
# Bias Voltage:      90
# Detector Voltage:  2600
# Eff. Workfunction: 4.309
# Source:            X-Ray Dummy
# Comment:           
#
# Cycle: 0
# Number of Scans: 100
#
# Cycle: 0, Curve: 0
# Acquisition Date: 09/01/22 01:33:46 UTC
#
# ColumnLabels: energy counts/s
#
409  1045.025
408.9  1038.1125
408.8  1051.4375
408.7  1048.8375
408.6  1051.475
408.5  1041.5375
408.4  1051.275
408.3  1050.3125
408.2  1049.1125
408.1  1048.0625
408  1053.8125
407.9  1047.0375
407.8  1044
407.7  1051.175
407.6  1043.1125
407.5  1056.1875
407.4  1047.4
407.3  1049.35
407.2  1045.8625
407.1  1053.2875
407  1053.7125
406.9  1051.2875
406.8  1040.9375
406.7  1052.65
406.6  1048.25
406.5  1049.925
406.4  1043.075
406.3  1046.8875
406.2  1051.725
406.1  1051.1375
406  1053.3125
405.9  1049.575
405.8  1054.1125
405.7  1051.125
405.6  1051.1125
405.5  1055.775
405.4  1047.525
405.3  1043.1875
405.2  1050.2125
405.1  1050.175
405  1051.5375
404.9  1052.375
404.8  1046.9
404.7  1054.975
404.6  1055.9
404.5  1052.725
404.4  1056.15
404.3  1051.5875
404.2  1056
404.1  1051.35
404  1051.375
403.9  1051.4875
403.8  1050.525
403.7  1054.425
403.6  1048.95
403.5  1054.4875
403.4  1051.4375
403.3  1057.65
403.2  1053.825
403.1  1048.0875
403  1052.075
402.9  1056.725
402.8  1049.375
402.7  1056.85
402.6  1051.9875
402.5  1052.4875
402.4  1053.0625
402.3  1050.8875
402.2  1055.95
402.1  1051.075
402  1054.6625
401.9  1060.9375
401.8  1050.8
401.7  1060.9125
401.6  1060.05
401.5  1063.375
401.4  1059.9125
401.3  1066.225
401.2  1068.9375
401.1  1061.1125
401  1066.2125
400.9  1065.7375
400.8  1072.25
400.7  1070.8125
400.6  1064.6
400.5  1062.375
400.4  1062.2375
400.3  1067.6125
400.2  1063.2125
400.1  1059.325
400  1059.275
399.9  1057.2875
399.8  1055.05
399.7  1054.6875
399.6  1061.05
399.5  1061
399.4  1046.725
399.3  1047
399.2  1052.3125
399.1  1046.425
399  1054.2375
398.9  1046.3
398.8  1046.6375
398.7  1050.1
398.6  1043.85
398.5  1039.625
398.4  1039.75
398.3  1043.975
398.2  1035.5625
398.1  1033.8375
398  1052.8875
397.9  1037.425
397.8  1040.0875
397.7  1040.6625
397.6  1033.625
397.5  1034.5875
397.4  1036.55
397.3  1040.775
397.2  1036.5125
397.1  1031.6125
397  1029.625

# Region:            Si2p
# Acquisition Date:  08/31/22 22:40:39 UTC
# Analysis Method:   XPS
# Analyzer:          Phoibos 100 R6
# Analyzer Lens:     LargeArea:1.5kV
# Analyzer Slit:     1:0.2x20\B:open
# Scan Mode:         FixedAnalyzerTransmission
# Curves/Scan:       1
# Values/Curve:      261
# Dwell Time:        0.8
# Excitation Energy: 1486.61
# Binding Energy:    115
# Pass Energy:       30
# Bias Voltage:      90
# Detector Voltage:  2600
# Eff. Workfunction: 4.309
# Source:            X-Ray Dummy
# Comment:           
#
# Cycle: 0
# Number of Scans: 30
#
# Cycle: 0, Curve: 0
# Acquisition Date: 08/31/22 22:40:39 UTC
#
# ColumnLabels: energy counts/s
#
115  948.41667
114.9  939.91667
114.8  945.375
114.7  946.33333
114.6  947.41667
114.5  936.04167
114.4  950.20833
114.3  942.04167
114.2  931.375
114.1  944
114  936.75
113.9  939.58333
113.8  945
113.7  943.125
113.6  937.58333
113.5  938.70833
113.4  935.58333
113.3  937.08333
113.2  934.125
113.1  928.54167
113  936.58333
112.9  953.625
112.8  941.75
112.7  939.83333
112.6  942.625
112.5  937.16667
112.4  939.16667
112.3  943.54167
112.2  940.54167
112.1  935.75
112  943.16667
111.9  926.20833
111.8  935.5
111.7  929.875
111.6  931.66667
111.5  933.41667
111.4  938.16667
111.3  938.75
111.2  932.375
111.1  937.04167
111  932.66667
110.9  934.83333
110.8  933.16667
110.7  927.58333
110.6  940.25
110.5  940.95833
110.4  931.79167
110.3  930.41667
110.2  927.70833
110.1  939.54167
110  939.5
109.9  938.95833
109.8  942.29167
109.7  942.29167
109.6  940.33333
109.5  940.79167
109.4  930.79167
109.3  935.75
109.2  946.375
109.1  939.08333
109  939.04167
108.9  937.79167
108.8  934.29167
108.7  935.75
108.6  942.54167
108.5  948.25
108.4  935.875
108.3  932.91667
108.2  944.54167
108.1  933.04167
108  944.45833
107.9  930.16667
107.8  943.375
107.7  936.79167
107.6  943.75
107.5  939.625
107.4  936.83333
107.3  938.29167
107.2  951.95833
107.1  933.08333
107  935.66667
106.9  937.375
106.8  941.33333
106.7  938.58333
106.6  943.16667
106.5  934.125
106.4  942.16667
106.3  947.04167
106.2  945.66667
106.1  946.125
106  950.79167
105.9  957.04167
105.8  958.45833
105.7  951.66667
105.6  959
105.5  937.41667
105.4  960.5
105.3  951.75
105.2  951.83333
105.1  955.75
105  957.5
104.9  962.125
104.8  953.79167
104.7  955.625
104.6  956.33333
104.5  945.625
104.4  949.54167
104.3  951.70833
104.2  955.95833
104.1  976.29167
104  973.70833
103.9  958.33333
103.8  966.25
103.7  964.125
103.6  977
103.5  979.45833
103.4  961.66667
103.3  967.70833
103.2  961.875
103.1  973.33333
103  966.29167
102.9  968.79167
102.8  986.58333
102.7  973.45833
102.6  972.875
102.5  978
102.4  968.95833
102.3  957.625
102.2  965.25
102.1  973
102  962.91667
101.9  963.91667
101.8  953.83333
101.7  965.45833
101.6  954.125
101.5  950.45833
101.4  948.66667
101.3  958.79167
101.2  947.25
101.1  953.29167
101  955.875
100.9  950
100.8  959.25
100.7  949.95833
100.6  956.875
100.5  954.04167
100.4  955.75
100.3  957.66667
100.2  940.75
100.1  958.66667
100  967.25
99.9  944.25
99.8  960.25
99.7  954.66667
99.6  947.54167
99.5  943.16667
99.4  952.08333
99.3  952.83333
99.2  950.54167
99.1  950.58333
99  963.20833
98.9  953.58333
98.8  953
98.7  955
98.6  948
98.5  955.70833
98.4  958.83333
98.3  956.41667
98.2  949.75
98.1  969.41667
98  942.16667
97.9  953.79167
97.8  948.70833
97.7  953.04167
97.6  965.08333
97.5  960.29167
97.4  953.08333
97.3  953.91667
97.2  948.25
97.1  960
97  958.20833
96.9  953.16667
96.8  963.91667
96.7  956
96.6  962.04167
96.5  967.75
96.4  966.54167
96.3  962.91667
96.2  954.79167
96.1  954.33333
96  964.33333
95.9  961.95833
95.8  969.25
95.7  982.33333
95.6  982.16667
95.5  985.08333
95.4  999.29167
95.3  1008.75
95.2  1017.75
95.1  1017.875
95  1024.5
94.9  1031.2083
94.8  1038.5
94.7  1055.9583
94.6  1076.0417
94.5  1087.6667
94.4  1095.9167
94.3  1120.5417
94.2  1127
94.1  1138.0833
94  1139.1667
93.9  1167.9167
93.8  1163.5
93.7  1174.375
93.6  1164.8333
93.5  1171.75
93.4  1154.4583
93.3  1143.9167
93.2  1140.3333
93.1  1142.5417
93  1133.8333
92.9  1123.0417
92.8  1120.9167
92.7  1110.125
92.6  1114.375
92.5  1124
92.4  1105.2917
92.3  1123.9583
92.2  1118.875
92.1  1122.2083
92  1136.5417
91.9  1162.2917
91.8  1174.8333
91.7  1183.9167
91.6  1202.7917
91.5  1223.6667
91.4  1220.8333
91.3  1253.3333
91.2  1242.9167
91.1  1250.5
91  1240.4583
90.9  1232.4583
90.8  1234.2083
90.7  1210.7917
90.6  1212.75
90.5  1174.9583
90.4  1166.375
90.3  1153.4167
90.2  1113.625
90.1  1105.9583
90  1092.7917
89.9  1064.625
89.8  1056.7917
89.7  1039.0833
89.6  1023.375
89.5  1007.625
89.4  1010.375
89.3  1013.75
89.2  998.375
89.1  992.5
89  1003.2083

# Region:            In3d
# Acquisition Date:  08/31/22 17:46:19 UTC
# Analysis Method:   XPS
# Analyzer:          Phoibos 100 R6
# Analyzer Lens:     LargeArea:1.5kV
# Analyzer Slit:     1:0.2x20\B:open
# Scan Mode:         FixedAnalyzerTransmission
# Curves/Scan:       1
# Values/Curve:      231
# Dwell Time:        0.8
# Excitation Energy: 1486.61
# Binding Energy:    460
# Pass Energy:       30
# Bias Voltage:      90
# Detector Voltage:  2600
# Eff. Workfunction: 4.309
# Source:            X-Ray Dummy
# Comment:           
#
# Cycle: 0
# Number of Scans: 4
#
# Cycle: 0, Curve: 0
# Acquisition Date: 08/31/22 17:46:19 UTC
#
# ColumnLabels: energy counts/s
#
460  2667.5
459.9  2593.4375
459.8  2641.875
459.7  2648.4375
459.6  2634.375
459.5  2667.1875
459.4  2617.1875
459.3  2612.8125
459.2  2566.5625
459.1  2552.1875
459  2590.9375
458.9  2550.9375
458.8  2587.5
458.7  2526.25
458.6  2493.4375
458.5  2527.1875
458.4  2511.875
458.3  2551.875
458.2  2508.125
458.1  2564.375
458  2498.4375
457.9  2531.875
457.8  2470.9375
457.7  2554.6875
457.6  2554.375
457.5  2523.75
457.4  2507.1875
457.3  2532.1875
457.2  2559.6875
457.1  2549.375
457  2495.9375
456.9  2528.125
456.8  2607.1875
456.7  2565.9375
456.6  2620.3125
456.5  2600
456.4  2620.3125
456.3  2675
456.2  2718.125
456.1  2664.375
456  2794.0625
455.9  2794.0625
455.8  2832.1875
455.7  2933.125
455.6  2989.0625
455.5  3098.4375
455.4  3169.375
455.3  3199.375
455.2  3339.6875
455.1  3520.3125
455  3669.0625
454.9  3841.25
454.8  3958.125
454.7  4212.5
454.6  4326.5625
454.5  4580
454.4  4857.5
454.3  5163.75
454.2  5397.1875
454.1  5707.5
454  5995
453.9  6218.125
453.8  6614.6875
453.7  6873.75
453.6  7085
453.5  7386.875
453.4  7718.125
453.3  7823.125
453.2  8025.9375
453.1  8214.375
453  8208.75
452.9  8348.125
452.8  8294.6875
452.7  8101.5625
452.6  7926.875
452.5  7752.8125
452.4  7400.625
452.3  6871.5625
452.2  6545.3125
452.1  6031.875
452  5670.3125
451.9  5236.25
451.8  4775.3125
451.7  4398.4375
451.6  3929.6875
451.5  3634.0625
451.4  3368.75
451.3  3077.8125
451.2  2892.8125
451.1  2690.3125
451  2565
450.9  2385.625
450.8  2292.8125
450.7  2219.375
450.6  2153.4375
450.5  2171.25
450.4  2097.1875
450.3  2037.5
450.2  2025.3125
450.1  2048.125
450  2034.6875
449.9  1997.1875
449.8  2021.5625
449.7  1986.875
449.6  2009.0625
449.5  1999.6875
449.4  2029.375
449.3  2033.4375
449.2  2030
449.1  2030
449  2094.0625
448.9  2088.4375
448.8  2153.75
448.7  2160
448.6  2214.0625
448.5  2293.4375
448.4  2366.25
448.3  2440.3125
448.2  2588.75
448.1  2671.25
448  2776.25
447.9  2893.125
447.8  3030.625
447.7  3302.5
447.6  3425
447.5  3591.25
447.4  3873.125
447.3  4115.625
447.2  4378.125
447.1  4749.6875
447  5091.25
446.9  5482.5
446.8  5791.875
446.7  6212.8125
446.6  6661.25
446.5  6996.25
446.4  7479.375
446.3  7919.375
446.2  8306.25
446.1  8806.25
446  9256.875
445.9  9567.8125
445.8  9972.1875
445.7  10237.188
445.6  10485.938
445.5  10453.75
445.4  10758.125
445.3  10835
445.2  10599.063
445.1  10381.563
445  10186.25
444.9  9738.125
444.8  9221.5625
444.7  8735.625
444.6  8120.3125
444.5  7535.9375
444.4  6811.875
444.3  6262.8125
444.2  5693.125
444.1  5106.875
444  4586.5625
443.9  4199.6875
443.8  3718.125
443.7  3379.375
443.6  3194.375
443.5  2978.125
443.4  2853.75
443.3  2690.3125
443.2  2486.875
443.1  2422.1875
443  2363.75
442.9  2325.625
442.8  2230
442.7  2154.6875
442.6  2171.5625
442.5  2075.625
442.4  2070
442.3  2022.5
442.2  1954.6875
442.1  1904.6875
442  1863.75
441.9  1810
441.8  1820.9375
441.7  1798.4375
441.6  1724.375
441.5  1738.4375
441.4  1724.0625
441.3  1673.4375
441.2  1714.6875
441.1  1638.75
441  1607.8125
440.9  1611.25
440.8  1575.3125
440.7  1619.0625
440.6  1562.5
440.5  1594.375
440.4  1614.6875
440.3  1531.25
440.2  1504.375
440.1  1495
440  1476.875
439.9  1452.1875
439.8  1414.0625
439.7  1436.5625
439.6  1391.875
439.5  1389.375
439.4  1396.875
439.3  1394.0625
439.2  1327.8125
439.1  1392.8125
439  1364.0625
438.9  1320
438.8  1370.9375
438.7  1319.375
438.6  1321.5625
438.5  1326.25
438.4  1288.4375
438.3  1355.3125
438.2  1340.3125
438.1  1312.5
438  1340
437.9  1344.375
437.8  1410.625
437.7  1401.25
437.6  1398.4375
437.5  1430.9375
437.4  1452.1875
437.3  1420
437.2  1488.4375
437.1  1488.125
437  1529.375

# Region:            Sn3d
# Acquisition Date:  08/31/22 17:49:25 UTC
# Analysis Method:   XPS
# Analyzer:          Phoibos 100 R6
# Analyzer Lens:     LargeArea:1.5kV
# Analyzer Slit:     1:0.2x20\B:open
# Scan Mode:         FixedAnalyzerTransmission
# Curves/Scan:       1
# Values/Curve:      231
# Dwell Time:        0.8
# Excitation Energy: 1486.61
# Binding Energy:    503
# Pass Energy:       30
# Bias Voltage:      90
# Detector Voltage:  2600
# Eff. Workfunction: 4.309
# Source:            X-Ray Dummy
# Comment:           
#
# Cycle: 0
# Number of Scans: 4
#
# Cycle: 0, Curve: 0
# Acquisition Date: 08/31/22 17:49:25 UTC
#
# ColumnLabels: energy counts/s
#
503  3285
502.9  3203.125
502.8  3151.5625
502.7  3197.1875
502.6  3225.625
502.5  3210.625
502.4  3216.5625
502.3  3232.5
502.2  3215
502.1  3207.8125
502  3165.9375
501.9  3177.8125
501.8  3253.75
501.7  3117.1875
501.6  3165
501.5  3206.25
501.4  3225.625
501.3  3237.5
501.2  3153.4375
501.1  3181.875
501  3210.3125
500.9  3206.25
500.8  3208.4375
500.7  3191.25
500.6  3189.6875
500.5  3161.25
500.4  3151.875
500.3  3215.625
500.2  3231.875
500.1  3164.6875
500  3195.9375
499.9  3198.4375
499.8  3210
499.7  3203.125
499.6  3207.1875
499.5  3215.9375
499.4  3244.375
499.3  3180.3125
499.2  3173.125
499.1  3204.6875
499  3208.125
498.9  3292.1875
498.8  3210.9375
498.7  3244.375
498.6  3231.875
498.5  3302.1875
498.4  3266.5625
498.3  3284.6875
498.2  3296.25
498.1  3322.5
498  3327.5
497.9  3294.0625
497.8  3295.9375
497.7  3369.0625
497.6  3340.3125
497.5  3492.5
497.4  3515.9375
497.3  3410
497.2  3463.75
497.1  3573.125
497  3592.1875
496.9  3622.5
496.8  3737.8125
496.7  3677.1875
496.6  3745.625
496.5  3742.8125
496.4  3815.3125
496.3  3834.375
496.2  3808.4375
496.1  3831.875
496  3881.5625
495.9  3919.0625
495.8  3943.4375
495.7  3862.5
495.6  3883.75
495.5  3875.625
495.4  3845.625
495.3  3796.25
495.2  3812.5
495.1  3712.8125
495  3653.125
494.9  3619.375
494.8  3538.4375
494.7  3527.1875
494.6  3425.625
494.5  3427.1875
494.4  3380.9375
494.3  3295.9375
494.2  3237.1875
494.1  3260.3125
494  3163.4375
493.9  3221.5625
493.8  3180.3125
493.7  3158.75
493.6  3119.0625
493.5  3112.8125
493.4  3180
493.3  3099.6875
493.2  3152.1875
493.1  3118.4375
493  3102.5
492.9  3084.0625
492.8  3148.4375
492.7  3133.75
492.6  3084.0625
492.5  3145.625
492.4  3060.625
492.3  3081.875
492.2  3131.25
492.1  3062.1875
492  3027.1875
491.9  3142.5
491.8  3100.625
491.7  3081.875
491.6  3114.6875
491.5  3077.8125
491.4  3125
491.3  3082.5
491.2  3034.0625
491.1  3120.9375
491  3090
490.9  3096.5625
490.8  3162.1875
490.7  3175
490.6  3116.5625
490.5  3120.625
490.4  3139.0625
490.3  3177.1875
490.2  3235.3125
490.1  3171.875
490  3220.625
489.9  3194.0625
489.8  3256.875
489.7  3298.4375
489.6  3320.9375
489.5  3303.125
489.4  3387.8125
489.3  3341.875
489.2  3405.9375
489.1  3425.3125
489  3493.4375
488.9  3573.125
488.8  3587.5
488.7  3646.25
488.6  3716.25
488.5  3740
488.4  3756.25
488.3  3867.1875
488.2  3889.375
488.1  3975.9375
488  3995.9375
487.9  3991.5625
487.8  4101.875
487.7  4118.4375
487.6  4085.3125
487.5  4180.625
487.4  4204.0625
487.3  4201.25
487.2  4181.5625
487.1  4170.625
487  4085.625
486.9  4079.6875
486.8  4065
486.7  4010.9375
486.6  3925.625
486.5  3789.375
486.4  3780.625
486.3  3677.1875
486.2  3632.8125
486.1  3492.5
486  3517.5
485.9  3449.6875
485.8  3352.1875
485.7  3313.75
485.6  3327.1875
485.5  3282.1875
485.4  3220.625
485.3  3214.375
485.2  3227.8125
485.1  3208.4375
485  3187.5
484.9  3182.8125
484.8  3097.8125
484.7  3141.5625
484.6  3131.875
484.5  3156.5625
484.4  3133.4375
484.3  3080.625
484.2  3128.125
484.1  3088.125
484  3088.125
483.9  3052.1875
483.8  3083.4375
483.7  3070
483.6  3089.375
483.5  3104.6875
483.4  3058.4375
483.3  3068.125
483.2  3122.5
483.1  3033.75
483  3081.25
482.9  3070
482.8  3070.3125
482.7  3103.75
482.6  3084.6875
482.5  3086.5625
482.4  3096.25
482.3  3064.375
482.2  3048.125
482.1  3053.125
482  3081.25
481.9  3048.125
481.8  3055
481.7  3108.4375
481.6  3082.8125
481.5  3105
481.4  3085.3125
481.3  3112.5
481.2  3068.4375
481.1  3114.6875
481  3113.4375
480.9  3094.6875
480.8  3101.25
480.7  3121.875
480.6  3043.4375
480.5  3102.1875
480.4  3149.375
480.3  3072.5
480.2  3125.625
480.1  3108.4375
480  3054.0625

# Region:            Cl2p
# Acquisition Date:  08/31/22 22:42:10 UTC
# Analysis Method:   XPS
# Analyzer:          Phoibos 100 R6
# Analyzer Lens:     LargeArea:1.5kV
# Analyzer Slit:     1:0.2x20\B:open
# Scan Mode:         FixedAnalyzerTransmission
# Curves/Scan:       1
# Values/Curve:      111
# Dwell Time:        0.8
# Excitation Energy: 1486.61
# Binding Energy:    207
# Pass Energy:       30
# Bias Voltage:      90
# Detector Voltage:  2600
# Eff. Workfunction: 4.309
# Source:            X-Ray Dummy
# Comment:           
#
# Cycle: 0
# Number of Scans: 30
#
# Cycle: 0, Curve: 0
# Acquisition Date: 08/31/22 22:42:10 UTC
#
# ColumnLabels: energy counts/s
#
207  954.66667
206.9  946.58333
206.8  952.41667
206.7  951.33333
206.6  949.04167
206.5  956.625
206.4  946.58333
206.3  952.375
206.2  962.33333
206.1  961.5
206  957.91667
205.9  954.70833
205.8  947.54167
205.7  961.91667
205.6  957.29167
205.5  976.5
205.4  957.79167
205.3  956.33333
205.2  950.75
205.1  965.5
205  965.25
204.9  956.41667
204.8  952.375
204.7  951.91667
204.6  953.45833
204.5  949.875
204.4  949.625
204.3  953.79167
204.2  957.33333
204.1  955.83333
204  960.45833
203.9  959.66667
203.8  970.375
203.7  958.125
203.6  951.41667
203.5  958.625
203.4  952.29167
203.3  968.625
203.2  955.70833
203.1  953.04167
203  965.875
202.9  963.875
202.8  969.5
202.7  964.5
202.6  972.875
202.5  981.16667
202.4  991.20833
202.3  995.375
202.2  1006.25
202.1  1004.625
202  1012.9167
201.9  1017.1667
201.8  1020.9583
201.7  1039.3333
201.6  1051.7917
201.5  1064.4167
201.4  1067.2083
201.3  1072.9583
201.2  1079.625
201.1  1096.4583
201  1104.5417
200.9  1100.4583
200.8  1132.7917
200.7  1131.5417
200.6  1128.9583
200.5  1142.2917
200.4  1142.125
200.3  1143.4583
200.2  1158.5417
200.1  1169.8333
200  1173.5417
199.9  1179.5833
199.8  1187.625
199.7  1190.2083
199.6  1184.8333
199.5  1187.5417
199.4  1192.875
199.3  1180.625
199.2  1170.5833
199.1  1180.5417
199  1159.4583
198.9  1161.0417
198.8  1155.7917
198.7  1131.0417
198.6  1113.7917
198.5  1098.375
198.4  1072.1667
198.3  1049.7083
198.2  1040.25
198.1  1024.5417
198  1015.875
197.9  1001.2083
197.8  998.25
197.7  976.45833
197.6  977.375
197.5  956.875
197.4  978.95833
197.3  968.29167
197.2  964.375
197.1  956
197  950.58333
196.9  951.25
196.8  963.66667
196.7  943.875
196.6  951.08333
196.5  945.25
196.4  948.125
196.3  954.33333
196.2  940.125
196.1  959.75
196  952.70833

# Region:            O1s
# Acquisition Date:  08/31/22 23:35:26 UTC
# Analysis Method:   XPS
# Analyzer:          Phoibos 100 R6
# Analyzer Lens:     LargeArea:1.5kV
# Analyzer Slit:     1:0.2x20\B:open
# Scan Mode:         FixedAnalyzerTransmission
# Curves/Scan:       1
# Values/Curve:      111
# Dwell Time:        0.8
# Excitation Energy: 1486.61
# Binding Energy:    538
# Pass Energy:       30
# Bias Voltage:      90
# Detector Voltage:  2600
# Eff. Workfunction: 4.309
# Source:            X-Ray Dummy
# Comment:           
#
# Cycle: 0
# Number of Scans: 40
#
# Cycle: 0, Curve: 0
# Acquisition Date: 08/31/22 23:35:26 UTC
#
# ColumnLabels: energy counts/s
#
538  3386.8438
537.9  3365.875
537.8  3372.9688
537.7  3367.3125
537.6  3373.5313
537.5  3363.5313
537.4  3357.9375
537.3  3371.5313
537.2  3375.6875
537.1  3374.4063
537  3362.7188
536.9  3356.875
536.8  3392.7813
536.7  3367.1563
536.6  3360.5
536.5  3352.3438
536.4  3362.2813
536.3  3372.8125
536.2  3370.7188
536.1  3376.5625
536  3377.5313
535.9  3382.6875
535.8  3373.5
535.7  3369.7813
535.6  3393.8438
535.5  3402.25
535.4  3407.625
535.3  3423.375
535.2  3440.125
535.1  3445.5938
535  3453.3438
534.9  3480.4063
534.8  3502.6875
534.7  3530.3438
534.6  3517.7188
534.5  3555.25
534.4  3583.75
534.3  3601.4688
534.2  3662.6875
534.1  3676.8125
534  3734.375
533.9  3785.9375
533.8  3815.375
533.7  3880.0938
533.6  3950.0313
533.5  3986.4063
533.4  4033.5313
533.3  4119.5625
533.2  4153.4688
533.1  4248.5625
533  4327.6875
532.9  4425.75
532.8  4462.7188
532.7  4570.8125
532.6  4640.9688
532.5  4721.4063
532.4  4807.7813
532.3  4890.0313
532.2  5001.25
532.1  5090.2188
532  5168.6563
531.9  5283.7188
531.8  5356.25
531.7  5446.7813
531.6  5532.3438
531.5  5625.0313
531.4  5679.125
531.3  5745.1563
531.2  5787.5
531.1  5816.1875
531  5836.2813
530.9  5784.9375
530.8  5746.3438
530.7  5668.5938
530.6  5569.5938
530.5  5457.3125
530.4  5316.4375
530.3  5150.7813
530.2  4997.1875
530.1  4792.0625
530  4604.7188
529.9  4412.4688
529.8  4277.0625
529.7  4099.0625
529.6  3981.5
529.5  3875.8438
529.4  3755.75
529.3  3673.7188
529.2  3580.9063
529.1  3542.1563
529  3511.0313
528.9  3452.1875
528.8  3414.7188
528.7  3374.375
528.6  3376.5625
528.5  3330.6875
528.4  3338.625
528.3  3318.5625
528.2  3323.0938
528.1  3305.2813
528  3311.125
527.9  3284
527.8  3297.1563
527.7  3286
527.6  3290.0625
527.5  3289.1563
527.4  3265.5
527.3  3278.3125
527.2  3265.6875
527.1  3274.7188
527  3246

# Group:             overview_HD
#
# Region:            overview
# Acquisition Date:  09/01/22 07:00:35 UTC
# Analysis Method:   XPS
# Analyzer:          Phoibos 100 R6
# Analyzer Lens:     LargeArea:1.5kV
# Analyzer Slit:     1:0.2x20\B:open
# Scan Mode:         FixedAnalyzerTransmission
# Curves/Scan:       1
# Values/Curve:      6021
# Dwell Time:        0.4
# Excitation Energy: 1486.61
# Binding Energy:    1200
# Pass Energy:       30
# Bias Voltage:      90
# Detector Voltage:  2600
# Eff. Workfunction: 4.309
# Source:            X-Ray Dummy
# Comment:           
#
# Cycle: 0
# Number of Scans: 8
#
# Cycle: 0, Curve: 0
# Acquisition Date: 09/01/22 07:00:35 UTC
#
# ColumnLabels: energy counts/s
#
1200  10221.875
1199.8  10185.313
1199.6  10143.438
1199.4  10099.688
1199.2  10003.125
1199  10167.813
1198.8  10117.188
1198.6  10246.25
1198.4  10018.125
1198.2  10129.063
1198  10066.25
1197.8  10055
1197.6  10172.188
1197.4  10060.938
1197.2  10068.125
1197  10007.188
1196.8  10147.188
1196.6  10097.5
1196.4  10133.438
1196.2  10130.313
1196  10102.813
1195.8  10209.375
1195.6  10080
1195.4  10247.5
1195.2  10138.438
1195  10200
1194.8  10225.625
1194.6  10107.5
1194.4  10103.438
1194.2  10206.25
1194  10080.938
1193.8  10148.75
1193.6  10151.25
1193.4  10173.125
1193.2  10232.813
1193  10099.688
1192.8  10103.75
1192.6  10149.688
1192.4  10125.313
1192.2  10148.75
1192  10057.188
1191.8  10138.75
1191.6  10128.438
1191.4  10104.063
1191.2  10226.563
1191  10103.438
1190.8  10105
1190.6  10225.313
1190.4  10108.75
1190.2  10029.375
1190  10127.188
1189.8  10091.563
1189.6  9988.75
1189.4  9987.5
1189.2  10103.438
1189  10039.688
1188.8  10161.25
1188.6  10028.438
1188.4  10039.375
1188.2  10031.563
1188  9988.125
1187.8  9965.3125
1187.6  9958.125
1187.4  10028.75
1187.2  9931.875
1187  9934.375
1186.8  9982.1875
1186.6  9932.1875
1186.4  9994.0625
1186.2  9964.0625
1186  9850.9375
1185.8  9905.9375
1185.6  9940
1185.4  10064.063
1185.2  9942.5
1185  9840.3125
1184.8  9879.375
1184.6  9838.75
1184.4  9965.625
1184.2  9958.125
1184  9846.25
1183.8  9816.5625
1183.6  9836.5625
1183.4  9921.875
1183.2  9929.375
1183  9835.9375
1182.8  9916.25
1182.6  9807.8125
1182.4  9795.9375
1182.2  9822.5
1182  9762.8125
1181.8  9709.375
1181.6  9730.9375
1181.4  9765.625
1181.2  9819.375
1181  9796.25
1180.8  9737.5
1180.6  9818.125
1180.4  9805.3125
1180.2  9783.125
1180  9756.875
1179.8  9800.9375
1179.6  9811.5625
1179.4  9735.625
1179.2  9769.375
1179  9749.0625
1178.8  9761.875
1178.6  9765
1178.4  9675.9375
1178.2  9712.5
1178  9791.5625
1177.8  9837.1875
1177.6  9697.1875
1177.4  9747.5
1177.2  9925.3125
1177  9774.375
1176.8  9683.75
1176.6  9695.9375
1176.4  9752.8125
1176.2  9660
1176  9674.0625
1175.8  9785.625
1175.6  9794.6875
1175.4  9696.875
1175.2  9753.125
1175  9849.0625
1174.8  9643.125
1174.6  9744.375
1174.4  9659.6875
1174.2  9765.625
1174  9768.125
1173.8  9644.0625
1173.6  9777.5
1173.4  9713.4375
1173.2  9675.9375
1173  9655.625
1172.8  9820
1172.6  9731.875
1172.4  9689.375
1172.2  9714.6875
1172  9672.8125
1171.8  9789.0625
1171.6  9705
1171.4  9603.125
1171.2  9763.4375
1171  9658.4375
1170.8  9674.6875
1170.6  9684.375
1170.4  9799.6875
1170.2  9655
1170  9728.4375
1169.8  9631.875
1169.6  9735
1169.4  9700
1169.2  9712.8125
1169  9761.875
1168.8  9774.375
1168.6  9707.5
1168.4  9629.6875
1168.2  9692.1875
1168  9700.9375
1167.8  9682.8125
1167.6  9637.5
1167.4  9714.375
1167.2  9642.5
1167  9614.0625
1166.8  9531.25
1166.6  9761.25
1166.4  9720.9375
1166.2  9839.0625
1166  9715
1165.8  9622.5
1165.6  9590
1165.4  9668.75
1165.2  9585.3125
1165  9675
1164.8  9676.875
1164.6  9657.1875
1164.4  9663.125
1164.2  9664.0625
1164  9680
1163.8  9760.625
1163.6  9633.75
1163.4  9687.5
1163.2  9760.3125
1163  9724.6875
1162.8  9715
1162.6  9741.875
1162.4  9530.625
1162.2  9648.4375
1162  9621.875
1161.8  9617.8125
1161.6  9708.125
1161.4  9644.6875
1161.2  9635.9375
1161  9703.125
1160.8  9614.0625
1160.6  9783.75
1160.4  9587.1875
1160.2  9689.6875
1160  9555
1159.8  9672.1875
1159.6  9542.1875
1159.4  9644.375
1159.2  9620.9375
1159  9599.6875
1158.8  9518.125
1158.6  9656.875
1158.4  9558.125
1158.2  9647.8125
1158  9559.0625
1157.8  9530.3125
1157.6  9628.4375
1157.4  9646.875
1157.2  9645.9375
1157  9618.75
1156.8  9629.6875
1156.6  9612.1875
1156.4  9579.0625
1156.2  9590.9375
1156  9616.25
1155.8  9548.75
1155.6  9633.75
1155.4  9665
1155.2  9566.25
1155  9600.9375
1154.8  9620.625
1154.6  9535.3125
1154.4  9590.3125
1154.2  9648.75
1154  9560
1153.8  9563.4375
1153.6  9487.8125
1153.4  9536.875
1153.2  9567.8125
1153  9595.3125
1152.8  9559.0625
1152.6  9552.5
1152.4  9509.0625
1152.2  9501.875
1152  9532.8125
1151.8  9511.25
1151.6  9577.1875
1151.4  9612.5
1151.2  9502.8125
1151  9618.125
1150.8  9458.125
1150.6  9489.6875
1150.4  9453.125
1150.2  9382.1875
1150  9502.8125
1149.8  9487.5
1149.6  9546.5625
1149.4  9472.1875
1149.2  9484.0625
1149  9464.375
1148.8  9529.0625
1148.6  9393.125
1148.4  9431.875
1148.2  9420.3125
1148  9404.6875
1147.8  9320.9375
1147.6  9484.375
1147.4  9390
1147.2  9504.375
1147  9365.9375
1146.8  9355
1146.6  9447.1875
1146.4  9442.1875
1146.2  9388.4375
1146  9383.4375
1145.8  9330.3125
1145.6  9414.375
1145.4  9472.5
1145.2  9367.1875
1145  9322.1875
1144.8  9378.125
1144.6  9426.875
1144.4  9410.9375
1144.2  9369.375
1144  9253.4375
1143.8  9310.9375
1143.6  9364.375
1143.4  9281.25
1143.2  9241.875
1143  9280.625
1142.8  9288.125
1142.6  9232.1875
1142.4  9283.4375
1142.2  9392.8125
1142  9294.6875
1141.8  9236.25
1141.6  9248.75
1141.4  9313.75
1141.2  9278.4375
1141  9255.625
1140.8  9170
1140.6  9224.375
1140.4  9228.125
1140.2  9309.6875
1140  9211.875
1139.8  9190.9375
1139.6  9264.6875
1139.4  9132.8125
1139.2  9190.625
1139  9242.8125
1138.8  9258.75
1138.6  9246.875
1138.4  9222.1875
1138.2  9199.0625
1138  9263.125
1137.8  9243.125
1137.6  9209.6875
1137.4  9229.0625
1137.2  9145.3125
1137  9183.75
1136.8  9253.4375
1136.6  9155
1136.4  9083.75
1136.2  9085.3125
1136  9107.5
1135.8  9047.5
1135.6  9016.5625
1135.4  8970.3125
1135.2  9068.4375
1135  8927.5
1134.8  9009.375
1134.6  8920.625
1134.4  8833.125
1134.2  9002.8125
1134  8891.25
1133.8  8793.125
1133.6  8794.6875
1133.4  8755.3125
1133.2  8804.6875
1133  8721.25
1132.8  8735.9375
1132.6  8836.25
1132.4  8834.375
1132.2  8725.9375
1132  8699.375
1131.8  8720.3125
1131.6  8777.8125
1131.4  8708.4375
1131.2  8664.6875
1131  8774.0625
1130.8  8685
1130.6  8767.1875
1130.4  8785.9375
1130.2  8660.625
1130  8621.875
1129.8  8715
1129.6  8711.5625
1129.4  8740.625
1129.2  8695.9375
1129  8599.0625
1128.8  8648.4375
1128.6  8644.6875
1128.4  8664.6875
1128.2  8686.875
1128  8708.75
1127.8  8610.3125
1127.6  8668.125
1127.4  8581.875
1127.2  8701.5625
1127  8645
1126.8  8590
1126.6  8652.5
1126.4  8614.0625
1126.2  8620.625
1126  8617.8125
1125.8  8599.6875
1125.6  8556.875
1125.4  8696.25
1125.2  8535.625
1125  8575.3125
1124.8  8568.75
1124.6  8478.75
1124.4  8555.3125
1124.2  8680.625
1124  8615.3125
1123.8  8578.125
1123.6  8609.6875
1123.4  8742.1875
1123.2  8679.375
1123  8680
1122.8  8470.3125
1122.6  8537.1875
1122.4  8612.8125
1122.2  8628.4375
1122  8525.9375
1121.8  8630.625
1121.6  8603.75
1121.4  8668.4375
1121.2  8622.5
1121  8625.625
1120.8  8586.25
1120.6  8597.5
1120.4  8498.75
1120.2  8598.75
1120  8538.125
1119.8  8698.75
1119.6  8496.25
1119.4  8542.1875
1119.2  8494.6875
1119  8565.3125
1118.8  8535.9375
1118.6  8671.25
1118.4  8606.5625
1118.2  8587.5
1118  8626.875
1117.8  8561.875
1117.6  8604.6875
1117.4  8629.0625
1117.2  8611.25
1117  8618.125
1116.8  8531.875
1116.6  8580.625
1116.4  8604.6875
1116.2  8704.0625
1116  8556.25
1115.8  8515.3125
1115.6  8567.8125
1115.4  8728.75
1115.2  8669.6875
1115  8611.875
1114.8  8620.625
1114.6  8623.125
1114.4  8662.1875
1114.2  8680
1114  8608.4375
1113.8  8744.6875
1113.6  8600.9375
1113.4  8711.25
1113.2  8643.75
1113  8640
1112.8  8617.8125
1112.6  8636.5625
1112.4  8644.6875
1112.2  8648.4375
1112  8690.3125
1111.8  8710.625
1111.6  8617.8125
1111.4  8671.25
1111.2  8622.5
1111  8713.125
1110.8  8650.9375
1110.6  8665.9375
1110.4  8676.25
1110.2  8640.9375
1110  8734.6875
1109.8  8651.875
1109.6  8722.5
1109.4  8676.875
1109.2  8655.625
1109  8755.625
1108.8  8596.875
1108.6  8562.1875
1108.4  8611.25
1108.2  8640.3125
1108  8630.3125
1107.8  8596.875
1107.6  8606.5625
1107.4  8723.125
1107.2  8586.25
1107  8652.8125
1106.8  8624.6875
1106.6  8749.6875
1106.4  8598.4375
1106.2  8635.625
1106  8625.3125
1105.8  8612.8125
1105.6  8610.9375
1105.4  8652.5
1105.2  8540.625
1105  8633.125
1104.8  8573.125
1104.6  8640
1104.4  8529.0625
1104.2  8601.25
1104  8590.3125
1103.8  8598.75
1103.6  8570.3125
1103.4  8581.5625
1103.2  8459.6875
1103  8584.0625
1102.8  8513.75
1102.6  8475.9375
1102.4  8563.125
1102.2  8570.625
1102  8562.8125
1101.8  8540
1101.6  8444.6875
1101.4  8467.5
1101.2  8498.4375
1101  8504.0625
1100.8  8485.625
1100.6  8495
1100.4  8450
1100.2  8507.5
1100  8412.5
1099.8  8413.75
1099.6  8456.5625
1099.4  8465.625
1099.2  8442.1875
1099  8521.25
1098.8  8454.6875
1098.6  8474.6875
1098.4  8443.125
1098.2  8406.875
1098  8270.625
1097.8  8499.6875
1097.6  8417.1875
1097.4  8347.1875
1097.2  8456.875
1097  8312.5
1096.8  8364.6875
1096.6  8393.125
1096.4  8318.75
1096.2  8418.125
1096  8349.6875
1095.8  8285
1095.6  8368.75
1095.4  8370.625
1095.2  8411.25
1095  8376.875
1094.8  8349.6875
1094.6  8382.1875
1094.4  8366.25
1094.2  8410.625
1094  8415.625
1093.8  8358.125
1093.6  8393.4375
1093.4  8344.6875
1093.2  8414.6875
1093  8507.5
1092.8  8455.9375
1092.6  8395.3125
1092.4  8475.3125
1092.2  8455.3125
1092  8475.9375
1091.8  8570.3125
1091.6  8554.0625
1091.4  8508.4375
1091.2  8594.375
1091  8660.3125
1090.8  8659.375
1090.6  8737.8125
1090.4  8717.1875
1090.2  8894.0625
1090  8956.5625
1089.8  9033.125
1089.6  9177.5
1089.4  9206.5625
1089.2  9250
1089  9305
1088.8  9438.4375
1088.6  9501.25
1088.4  9553.125
1088.2  9600.3125
1088  9723.4375
1087.8  9907.5
1087.6  9977.1875
1087.4  9908.4375
1087.2  9990.3125
1087  9975.9375
1086.8  9965.9375
1086.6  9970.9375
1086.4  10088.125
1086.2  10072.188
1086  9998.75
1085.8  9934.6875
1085.6  9835.625
1085.4  9820.625
1085.2  9597.5
1085  9607.8125
1084.8  9530.9375
1084.6  9404.6875
1084.4  9398.125
1084.2  9278.75
1084  9136.25
1083.8  9098.75
1083.6  9034.0625
1083.4  8997.1875
1083.2  8919.6875
1083  8902.1875
1082.8  8771.5625
1082.6  8758.125
1082.4  8780.3125
1082.2  8832.5
1082  8741.875
1081.8  8761.5625
1081.6  8746.875
1081.4  8697.1875
1081.2  8845
1081  8885.9375
1080.8  8720.625
1080.6  8834.0625
1080.4  8834.0625
1080.2  8868.4375
1080  8758.4375
1079.8  8768.125
1079.6  8741.875
1079.4  8703.75
1079.2  8721.25
1079  8588.125
1078.8  8648.125
1078.6  8565.9375
1078.4  8504.6875
1078.2  8355.625
1078  8277.5
1077.8  8205.625
1077.6  8081.25
1077.4  7963.4375
1077.2  7915
1077  7797.5
1076.8  7787.8125
1076.6  7662.5
1076.4  7625.9375
1076.2  7595.9375
1076  7576.25
1075.8  7485.625
1075.6  7471.25
1075.4  7280.9375
1075.2  7337.5
1075  7349.6875
1074.8  7289.0625
1074.6  7334.6875
1074.4  7216.875
1074.2  7182.5
1074  7175.9375
1073.8  7168.125
1073.6  7055.625
1073.4  7204.0625
1073.2  7164.375
1073  7200.3125
1072.8  7089.6875
1072.6  7058.75
1072.4  7163.125
1072.2  7150
1072  7220.3125
1071.8  7147.1875
1071.6  7112.1875
1071.4  7178.4375
1071.2  7097.1875
1071  7189.0625
1070.8  7240.9375
1070.6  7108.75
1070.4  7079.375
1070.2  7176.875
1070  7141.25
1069.8  7157.1875
1069.6  7242.5
1069.4  7212.8125
1069.2  7258.125
1069  7127.1875
1068.8  7214.375
1068.6  7160.9375
1068.4  7283.4375
1068.2  7177.1875
1068  7238.75
1067.8  7277.8125
1067.6  7265.625
1067.4  7242.1875
1067.2  7340.3125
1067  7400.3125
1066.8  7320.9375
1066.6  7333.125
1066.4  7277.8125
1066.2  7476.5625
1066  7395.3125
1065.8  7478.75
1065.6  7502.8125
1065.4  7511.5625
1065.2  7540
1065  7675
1064.8  7487.1875
1064.6  7515.9375
1064.4  7600.625
1064.2  7546.5625
1064  7663.125
1063.8  7588.4375
1063.6  7571.875
1063.4  7583.75
1063.2  7590
1063  7541.5625
1062.8  7571.25
1062.6  7567.1875
1062.4  7552.5
1062.2  7573.4375
1062  7545
1061.8  7465.9375
1061.6  7540.625
1061.4  7555.625
1061.2  7494.0625
1061  7451.25
1060.8  7453.75
1060.6  7355
1060.4  7300.9375
1060.2  7420
1060  7280.625
1059.8  7273.75
1059.6  7203.75
1059.4  7235
1059.2  7201.5625
1059  7150.9375
1058.8  7119.6875
1058.6  7062.5
1058.4  7025
1058.2  7108.125
1058  7050
1057.8  7042.8125
1057.6  6971.5625
1057.4  6933.4375
1057.2  6823.75
1057  6834.6875
1056.8  6812.8125
1056.6  6797.1875
1056.4  6823.125
1056.2  6786.5625
1056  6846.875
1055.8  6901.5625
1055.6  6836.5625
1055.4  6890.9375
1055.2  6817.1875
1055  6851.875
1054.8  6839.0625
1054.6  6806.25
1054.4  6811.25
1054.2  6807.1875
1054  6785.625
1053.8  6857.1875
1053.6  6786.25
1053.4  6840.9375
1053.2  6884.0625
1053  6827.8125
1052.8  6775.625
1052.6  6800.625
1052.4  6757.1875
1052.2  6791.5625
1052  6804.0625
1051.8  6805.9375
1051.6  6756.5625
1051.4  6816.875
1051.2  6725
1051  6657.1875
1050.8  6612.1875
1050.6  6596.25
1050.4  6649.0625
1050.2  6554.6875
1050  6650
1049.8  6509.375
1049.6  6552.8125
1049.4  6512.5
1049.2  6605.9375
1049  6528.4375
1048.8  6535.3125
1048.6  6522.8125
1048.4  6569.0625
1048.2  6536.25
1048  6460.9375
1047.8  6501.25
1047.6  6549.0625
1047.4  6460.9375
1047.2  6525.9375
1047  6545.625
1046.8  6500.3125
1046.6  6481.5625
1046.4  6485.9375
1046.2  6518.4375
1046  6348.4375
1045.8  6505
1045.6  6455
1045.4  6547.5
1045.2  6482.5
1045  6466.875
1044.8  6556.5625
1044.6  6488.4375
1044.4  6463.125
1044.2  6518.4375
1044  6426.875
1043.8  6424.375
1043.6  6404.0625
1043.4  6441.25
1043.2  6412.5
1043  6415.625
1042.8  6413.125
1042.6  6497.8125
1042.4  6440.625
1042.2  6482.5
1042  6405
1041.8  6520.9375
1041.6  6408.75
1041.4  6495.3125
1041.2  6434.375
1041  6399.0625
1040.8  6435.625
1040.6  6482.8125
1040.4  6482.8125
1040.2  6396.875
1040  6439.6875
1039.8  6417.1875
1039.6  6408.75
1039.4  6449.375
1039.2  6459.0625
1039  6420.3125
1038.8  6454.0625
1038.6  6431.5625
1038.4  6407.5
1038.2  6520.3125
1038  6323.4375
1037.8  6444.0625
1037.6  6412.1875
1037.4  6442.1875
1037.2  6447.1875
1037  6442.1875
1036.8  6409.375
1036.6  6327.8125
1036.4  6456.25
1036.2  6445.3125
1036  6453.4375
1035.8  6392.1875
1035.6  6433.125
1035.4  6409.0625
1035.2  6460.625
1035  6533.125
1034.8  6459.375
1034.6  6487.1875
1034.4  6410.3125
1034.2  6425.625
1034  6499.375
1033.8  6409.375
1033.6  6471.25
1033.4  6440.625
1033.2  6448.125
1033  6465
1032.8  6546.25
1032.6  6403.4375
1032.4  6451.25
1032.2  6510.3125
1032  6419.375
1031.8  6515.9375
1031.6  6412.8125
1031.4  6510.9375
1031.2  6442.5
1031  6479.0625
1030.8  6491.5625
1030.6  6458.75
1030.4  6456.25
1030.2  6439.0625
1030  6512.1875
1029.8  6546.5625
1029.6  6528.75
1029.4  6403.125
1029.2  6542.1875
1029  6538.75
1028.8  6478.125
1028.6  6412.5
1028.4  6461.875
1028.2  6535.3125
1028  6517.8125
1027.8  6585.3125
1027.6  6502.1875
1027.4  6458.75
1027.2  6457.8125
1027  6484.6875
1026.8  6488.75
1026.6  6481.875
1026.4  6425.625
1026.2  6423.4375
1026  6512.8125
1025.8  6454.375
1025.6  6460.9375
1025.4  6487.1875
1025.2  6519.375
1025  6480.3125
1024.8  6564.6875
1024.6  6509.6875
1024.4  6509.6875
1024.2  6469.0625
1024  6451.25
1023.8  6500.9375
1023.6  6489.6875
1023.4  6560.3125
1023.2  6577.8125
1023  6626.25
1022.8  6562.1875
1022.6  6528.125
1022.4  6588.4375
1022.2  6540.3125
1022  6492.1875
1021.8  6615.625
1021.6  6484.6875
1021.4  6551.25
1021.2  6454.375
1021  6530.625
1020.8  6521.25
1020.6  6459.6875
1020.4  6484.375
1020.2  6531.25
1020  6410.9375
1019.8  6505
1019.6  6460.9375
1019.4  6446.875
1019.2  6477.8125
1019  6544.0625
1018.8  6467.1875
1018.6  6462.5
1018.4  6530.9375
1018.2  6430.3125
1018  6486.25
1017.8  6493.4375
1017.6  6445.9375
1017.4  6413.75
1017.2  6530.625
1017  6475.625
1016.8  6509.375
1016.6  6435.625
1016.4  6430.625
1016.2  6482.8125
1016  6485
1015.8  6399.0625
1015.6  6503.125
1015.4  6417.1875
1015.2  6530
1015  6482.5
1014.8  6437.1875
1014.6  6463.75
1014.4  6494.375
1014.2  6550.9375
1014  6536.875
1013.8  6561.875
1013.6  6489.6875
1013.4  6504.375
1013.2  6597.5
1013  6498.75
1012.8  6551.25
1012.6  6606.5625
1012.4  6581.25
1012.2  6576.5625
1012  6573.75
1011.8  6528.75
1011.6  6519.375
1011.4  6592.5
1011.2  6541.5625
1011  6511.25
1010.8  6556.5625
1010.6  6455
1010.4  6530.9375
1010.2  6551.25
1010  6546.25
1009.8  6571.875
1009.6  6549.6875
1009.4  6481.25
1009.2  6529.6875
1009  6482.8125
1008.8  6505.625
1008.6  6551.25
1008.4  6389.6875
1008.2  6556.25
1008  6490.3125
1007.8  6519.375
1007.6  6528.75
1007.4  6506.875
1007.2  6478.4375
1007  6479.6875
1006.8  6428.4375
1006.6  6600.9375
1006.4  6456.5625
1006.2  6390
1006  6537.5
1005.8  6496.25
1005.6  6424.6875
1005.4  6392.1875
1005.2  6435.625
1005  6392.5
1004.8  6470.625
1004.6  6586.25
1004.4  6537.1875
1004.2  6463.125
1004  6424.6875
1003.8  6530
1003.6  6461.25
1003.4  6413.125
1003.2  6505
1003  6410.625
1002.8  6417.8125
1002.6  6490.625
1002.4  6456.875
1002.2  6485
1002  6494.0625
1001.8  6442.1875
1001.6  6501.875
1001.4  6514.375
1001.2  6585
1001  6500.9375
1000.8  6528.125
1000.6  6575.625
1000.4  6447.1875
1000.2  6529.6875
1000  6571.5625
999.8  6497.1875
999.6  6498.4375
999.4  6512.1875
999.2  6569.0625
999  6574.6875
998.8  6624.375
998.6  6581.5625
998.4  6552.5
998.2  6523.4375
998  6532.1875
997.8  6528.75
997.6  6646.25
997.4  6629.0625
997.2  6701.875
997  6658.75
996.8  6567.8125
996.6  6651.875
996.4  6583.125
996.2  6610.9375
996  6554.375
995.8  6674.0625
995.6  6683.125
995.4  6586.25
995.2  6671.25
995  6649.0625
994.8  6715.9375
994.6  6629.375
994.4  6667.1875
994.2  6575
994  6595
993.8  6513.75
993.6  6558.4375
993.4  6615.9375
993.2  6525.3125
993  6525.9375
992.8  6445
992.6  6469.0625
992.4  6542.8125
992.2  6461.875
992  6499.6875
991.8  6499.0625
991.6  6492.5
991.4  6495.9375
991.2  6470.625
991  6452.8125
990.8  6516.25
990.6  6430
990.4  6419.6875
990.2  6475.9375
990  6427.1875
989.8  6399.375
989.6  6423.125
989.4  6375.3125
989.2  6321.25
989  6369.375
988.8  6395.3125
988.6  6391.5625
988.4  6348.4375
988.2  6349.375
988  6304.6875
987.8  6360.9375
987.6  6348.75
987.4  6327.5
987.2  6270.3125
987  6312.8125
986.8  6257.8125
986.6  6393.4375
986.4  6268.75
986.2  6245
986  6278.4375
985.8  6244.0625
985.6  6237.8125
985.4  6235.3125
985.2  6246.875
985  6224.375
984.8  6170.3125
984.6  6217.8125
984.4  6126.875
984.2  6155
984  6170.3125
983.8  6137.1875
983.6  6129.0625
983.4  6195.3125
983.2  6215.625
983  6188.4375
982.8  6121.5625
982.6  6190.625
982.4  6208.75
982.2  6200.625
982  6147.1875
981.8  6212.1875
981.6  6205.9375
981.4  6215.625
981.2  6228.125
981  6156.5625
980.8  6211.25
980.6  6206.875
980.4  6224.6875
980.2  6220.9375
980  6284.6875
979.8  6358.4375
979.6  6317.8125
979.4  6289.0625
979.2  6260.3125
979  6355.625
978.8  6390.3125
978.6  6464.0625
978.4  6346.875
978.2  6443.75
978  6417.8125
977.8  6549.0625
977.6  6534.0625
977.4  6545
977.2  6689.6875
977  6652.5
976.8  6749.6875
976.6  6775
976.4  6768.75
976.2  6846.25
976  6806.5625
975.8  6973.4375
975.6  6851.875
975.4  6798.75
975.2  6906.25
975  6977.8125
974.8  6930.625
974.6  6862.5
974.4  6938.125
974.2  6883.4375
974  6837.5
973.8  6654.375
973.6  6569.0625
973.4  6641.25
973.2  6501.25
973  6461.5625
972.8  6307.5
972.6  6316.5625
972.4  6265.9375
972.2  6275.3125
972  6250.625
971.8  6104.0625
971.6  6169.6875
971.4  6155.9375
971.2  6135
971  6120
970.8  6075.625
970.6  6088.75
970.4  6020.3125
970.2  5960.625
970  5999.375
969.8  5935.625
969.6  5939.6875
969.4  5884.6875
969.2  5946.875
969  5948.4375
968.8  5909.6875
968.6  5898.75
968.4  5976.875
968.2  5904.0625
968  5861.5625
967.8  5836.875
967.6  5857.8125
967.4  5816.875
967.2  5791.875
967  5798.4375
966.8  5775.3125
966.6  5705.9375
966.4  5720.625
966.2  5750.625
966  5680
965.8  5696.5625
965.6  5705.625
965.4  5572.8125
965.2  5715.3125
965  5670.625
964.8  5631.5625
964.6  5618.4375
964.4  5629.6875
964.2  5588.4375
964  5690.3125
963.8  5571.5625
963.6  5569.0625
963.4  5544.6875
963.2  5620.3125
963  5630
962.8  5542.8125
962.6  5649.6875
962.4  5626.5625
962.2  5608.75
962  5549.6875
961.8  5538.75
961.6  5655.3125
961.4  5550.9375
961.2  5600.3125
961  5599.375
960.8  5582.8125
960.6  5576.875
960.4  5587.8125
960.2  5659.0625
960  5620
959.8  5648.4375
959.6  5666.5625
959.4  5658.4375
959.2  5594.375
959  5623.125
958.8  5532.1875
958.6  5638.125
958.4  5563.125
958.2  5609.6875
958  5591.875
957.8  5602.5
957.6  5495.625
957.4  5561.25
957.2  5615.3125
957  5616.25
956.8  5532.1875
956.6  5543.4375
956.4  5655.3125
956.2  5558.75
956  5589.0625
955.8  5584.375
955.6  5591.5625
955.4  5556.25
955.2  5561.5625
955  5642.1875
954.8  5530.9375
954.6  5500.3125
954.4  5650.625
954.2  5572.1875
954  5690.625
953.8  5619.375
953.6  5606.25
953.4  5601.5625
953.2  5536.5625
953  5543.4375
952.8  5621.875
952.6  5554.375
952.4  5619.0625
952.2  5663.4375
952  5653.75
951.8  5572.1875
951.6  5577.8125
951.4  5564.6875
951.2  5567.1875
951  5606.5625
950.8  5688.4375
950.6  5537.1875
950.4  5640
950.2  5546.25
950  5608.75
949.8  5584.0625
949.6  5575.625
949.4  5592.8125
949.2  5509.6875
949  5578.125
948.8  5566.5625
948.6  5546.25
948.4  5628.4375
948.2  5621.875
948  5499.375
947.8  5580
947.6  5540.9375
947.4  5539.0625
947.2  5596.5625
947  5632.5
946.8  5623.125
946.6  5630.9375
946.4  5580.3125
946.2  5568.125
946  5595.9375
945.8  5599.6875
945.6  5652.1875
945.4  5586.25
945.2  5543.125
945  5608.125
944.8  5606.875
944.6  5660.3125
944.4  5586.5625
944.2  5579.0625
944  5627.8125
943.8  5705.3125
943.6  5575.625
943.4  5637.8125
943.2  5563.125
943  5675.9375
942.8  5635.3125
942.6  5637.1875
942.4  5623.125
942.2  5610.625
942  5663.75
941.8  5618.125
941.6  5584.6875
941.4  5525.625
941.2  5605.3125
941  5546.875
940.8  5615.625
940.6  5639.0625
940.4  5634.375
940.2  5607.8125
940  5650
939.8  5672.8125
939.6  5695
939.4  5633.4375
939.2  5655.9375
939  5525.3125
938.8  5619.375
938.6  5673.75
938.4  5618.4375
938.2  5665.3125
938  5522.8125
937.8  5575.625
937.6  5610.625
937.4  5569.0625
937.2  5639.6875
937  5670.3125
936.8  5648.4375
936.6  5660
936.4  5597.5
936.2  5676.5625
936  5615.3125
935.8  5684.0625
935.6  5611.875
935.4  5630.3125
935.2  5637.1875
935  5642.5
934.8  5657.5
934.6  5599.0625
934.4  5728.4375
934.2  5623.4375
934  5701.875
933.8  5635.9375
933.6  5629.6875
933.4  5670.625
933.2  5643.125
933  5605.625
932.8  5647.5
932.6  5615.3125
932.4  5677.8125
932.2  5680.9375
932  5740.9375
931.8  5585
931.6  5695
931.4  5663.4375
931.2  5649.6875
931  5663.125
930.8  5734.6875
930.6  5669.6875
930.4  5723.75
930.2  5627.1875
930  5682.5
929.8  5676.875
929.6  5678.4375
929.4  5635.625
929.2  5732.5
929  5695.9375
928.8  5689.375
928.6  5653.125
928.4  5687.8125
928.2  5682.1875
928  5703.75
927.8  5655
927.6  5691.25
927.4  5710
927.2  5634.0625
927  5635
926.8  5661.25
926.6  5662.5
926.4  5688.75
926.2  5683.125
926  5701.25
925.8  5686.875
925.6  5654.375
925.4  5647.5
925.2  5585.3125
925  5702.1875
924.8  5695.3125
924.6  5675.625
924.4  5735.9375
924.2  5673.75
924  5796.875
923.8  5743.75
923.6  5735
923.4  5646.5625
923.2  5678.75
923  5719.6875
922.8  5730.625
922.6  5683.75
922.4  5629.375
922.2  5696.5625
922  5679.6875
921.8  5810.9375
921.6  5657.5
921.4  5750.9375
921.2  5707.8125
921  5723.125
920.8  5687.8125
920.6  5651.25
920.4  5742.1875
920.2  5767.8125
920  5777.1875
919.8  5750.9375
919.6  5680.9375
919.4  5735.9375
919.2  5695.625
919  5778.75
918.8  5698.75
918.6  5695.9375
918.4  5758.75
918.2  5782.1875
918  5701.25
917.8  5786.875
917.6  5726.5625
917.4  5754.0625
917.2  5662.5
917  5694.6875
916.8  5776.25
916.6  5699.375
916.4  5686.5625
916.2  5779.375
916  5765.625
915.8  5725.9375
915.6  5831.25
915.4  5723.4375
915.2  5765.625
915  5736.875
914.8  5778.4375
914.6  5699.375
914.4  5813.75
914.2  5815.625
914  5774.6875
913.8  5765.3125
913.6  5801.875
913.4  5787.8125
913.2  5824.375
913  5822.8125
912.8  5747.1875
912.6  5799.6875
912.4  5776.875
912.2  5791.25
912  5854.375
911.8  5807.1875
911.6  5762.5
911.4  5786.5625
911.2  5784.6875
911  5805.625
910.8  5838.125
910.6  5811.875
910.4  5789.375
910.2  5898.125
910  5781.875
909.8  5872.5
909.6  5887.8125
909.4  5885.625
909.2  5910
909  5824.375
908.8  5906.25
908.6  5930.625
908.4  5926.875
908.2  5941.25
908  5969.0625
907.8  5979.375
907.6  5938.125
907.4  6120.3125
907.2  6012.8125
907  5939.6875
906.8  5960.9375
906.6  6093.125
906.4  6116.25
906.2  6122.5
906  6166.875
905.8  6078.125
905.6  6128.4375
905.4  6160
905.2  6090
905  6110
904.8  6088.75
904.6  6141.25
904.4  6147.5
904.2  6088.125
904  6137.5
903.8  6095.9375
903.6  6114.0625
903.4  6130.3125
903.2  6194.0625
903  6122.8125
902.8  6171.25
902.6  6125.625
902.4  6169.0625
902.2  6166.5625
902  6181.25
901.8  6174.0625
901.6  6120.9375
901.4  6128.125
901.2  6156.25
901  6124.6875
900.8  6089.0625
900.6  6087.5
900.4  6053.4375
900.2  6014.0625
900  6038.4375
899.8  5958.4375
899.6  5957.8125
899.4  5959.0625
899.2  5862.1875
899  5915.9375
898.8  5900.9375
898.6  5905.9375
898.4  5849.0625
898.2  5839.6875
898  5938.4375
897.8  5854.0625
897.6  5896.875
897.4  5851.25
897.2  5833.125
897  5832.5
896.8  5753.125
896.6  5812.5
896.4  5722.8125
896.2  5868.125
896  5793.125
895.8  5735.625
895.6  5709.6875
895.4  5804.0625
895.2  5797.8125
895  5695.9375
894.8  5704.0625
894.6  5755.625
894.4  5768.75
894.2  5746.875
894  5747.8125
893.8  5716.875
893.6  5762.8125
893.4  5776.875
893.2  5796.25
893  5754.375
892.8  5755.625
892.6  5807.1875
892.4  5836.5625
892.2  5877.1875
892  5890.3125
891.8  5838.125
891.6  5850.3125
891.4  5876.5625
891.2  5915
891  5898.125
890.8  5876.875
890.6  5895
890.4  5855.9375
890.2  5776.5625
890  5777.1875
889.8  5812.1875
889.6  5822.8125
889.4  5848.125
889.2  5852.5
889  5848.4375
888.8  5832.8125
888.6  5802.1875
888.4  5736.25
888.2  5775.3125
888  5717.1875
887.8  5559.375
887.6  5643.4375
887.4  5641.25
887.2  5671.875
887  5632.8125
886.8  5544.0625
886.6  5629.0625
886.4  5656.875
886.2  5597.8125
886  5555
885.8  5537.8125
885.6  5519.375
885.4  5561.5625
885.2  5484.0625
885  5525.9375
884.8  5470.9375
884.6  5503.4375
884.4  5561.5625
884.2  5468.75
884  5505.9375
883.8  5455.9375
883.6  5430.625
883.4  5456.875
883.2  5479.0625
883  5372.1875
882.8  5428.4375
882.6  5381.5625
882.4  5405.625
882.2  5425.9375
882  5382.5
881.8  5424.375
881.6  5446.875
881.4  5309.0625
881.2  5407.8125
881  5410.3125
880.8  5342.1875
880.6  5385.9375
880.4  5370
880.2  5320
880  5324.0625
879.8  5391.5625
879.6  5332.1875
879.4  5368.4375
879.2  5368.4375
879  5389.6875
878.8  5315.625
878.6  5281.25
878.4  5327.1875
878.2  5335.625
878  5338.4375
877.8  5378.125
877.6  5310.625
877.4  5394.375
877.2  5314.6875
877  5310.3125
876.8  5370.9375
876.6  5275.3125
876.4  5380.3125
876.2  5375.9375
876  5298.75
875.8  5286.25
875.6  5275
875.4  5329.0625
875.2  5231.875
875  5333.75
874.8  5356.5625
874.6  5313.4375
874.4  5314.6875
874.2  5302.1875
874  5328.125
873.8  5264.6875
873.6  5230
873.4  5281.875
873.2  5318.125
873  5237.8125
872.8  5327.8125
872.6  5294.0625
872.4  5296.875
872.2  5288.75
872  5237.8125
871.8  5308.75
871.6  5363.75
871.4  5296.875
871.2  5352.5
871  5338.75
870.8  5355.9375
870.6  5266.875
870.4  5291.25
870.2  5262.5
870  5239.6875
869.8  5348.125
869.6  5305
869.4  5244.6875
869.2  5254.6875
869  5370
868.8  5351.5625
868.6  5250
868.4  5283.75
868.2  5224.375
868  5239.375
867.8  5256.875
867.6  5288.75
867.4  5243.4375
867.2  5329.0625
867  5295.9375
866.8  5260.625
866.6  5341.875
866.4  5249.6875
866.2  5273.125
866  5292.1875
865.8  5186.25
865.6  5241.25
865.4  5283.125
865.2  5245
865  5314.6875
864.8  5283.75
864.6  5304.0625
864.4  5274.0625
864.2  5255.625
864  5365.3125
863.8  5235
863.6  5312.8125
863.4  5315.625
863.2  5305.9375
863  5269.0625
862.8  5260.3125
862.6  5342.8125
862.4  5192.5
862.2  5356.25
862  5343.125
861.8  5279.6875
861.6  5354.0625
861.4  5328.125
861.2  5260.3125
861  5323.75
860.8  5267.5
860.6  5222.1875
860.4  5243.75
860.2  5290
860  5217.5
859.8  5291.25
859.6  5349.375
859.4  5372.8125
859.2  5281.5625
859  5282.1875
858.8  5300.625
858.6  5293.75
858.4  5301.25
858.2  5283.75
858  5289.6875
857.8  5320
857.6  5311.25
857.4  5297.5
857.2  5190.9375
857  5282.5
856.8  5320.3125
856.6  5291.875
856.4  5291.25
856.2  5285.3125
856  5320
855.8  5287.1875
855.6  5295.9375
855.4  5386.875
855.2  5284.6875
855  5325.9375
854.8  5315
854.6  5328.125
854.4  5258.75
854.2  5179.6875
854  5256.5625
853.8  5362.5
853.6  5273.75
853.4  5319.0625
853.2  5306.25
853  5328.125
852.8  5320.3125
852.6  5363.4375
852.4  5315
852.2  5335.3125
852  5320.3125
851.8  5288.125
851.6  5355.3125
851.4  5280.9375
851.2  5280.625
851  5305.9375
850.8  5390.625
850.6  5337.1875
850.4  5358.4375
850.2  5271.5625
850  5328.4375
849.8  5381.875
849.6  5276.875
849.4  5306.875
849.2  5323.75
849  5281.5625
848.8  5285.3125
848.6  5348.125
848.4  5343.75
848.2  5316.875
848  5331.875
847.8  5335.625
847.6  5339.0625
847.4  5310
847.2  5379.0625
847  5304.0625
846.8  5310.625
846.6  5429.0625
846.4  5278.4375
846.2  5276.875
846  5385
845.8  5322.1875
845.6  5357.8125
845.4  5318.125
845.2  5301.875
845  5349.6875
844.8  5329.6875
844.6  5296.875
844.4  5365
844.2  5360
844  5319.6875
843.8  5371.875
843.6  5325.9375
843.4  5312.1875
843.2  5348.4375
843  5274.6875
842.8  5322.8125
842.6  5382.1875
842.4  5260.625
842.2  5234.375
842  5348.4375
841.8  5340
841.6  5298.4375
841.4  5282.1875
841.2  5340
841  5295.9375
840.8  5349.375
840.6  5388.125
840.4  5329.0625
840.2  5329.0625
840  5281.875
839.8  5340.3125
839.6  5285.3125
839.4  5301.875
839.2  5345
839  5398.75
838.8  5332.1875
838.6  5396.5625
838.4  5343.75
838.2  5324.6875
838  5384.0625
837.8  5342.8125
837.6  5366.25
837.4  5390.625
837.2  5353.4375
837  5310.625
836.8  5369.6875
836.6  5370.9375
836.4  5408.4375
836.2  5393.125
836  5442.5
835.8  5316.875
835.6  5378.125
835.4  5343.4375
835.2  5328.125
835  5375
834.8  5399.6875
834.6  5379.375
834.4  5414.6875
834.2  5475.625
834  5338.4375
833.8  5444.375
833.6  5246.875
833.4  5395.3125
833.2  5418.125
833  5429.375
832.8  5430
832.6  5448.75
832.4  5415.3125
832.2  5503.4375
832  5420.9375
831.8  5528.125
831.6  5470.3125
831.4  5455
831.2  5444.6875
831  5410.9375
830.8  5477.8125
830.6  5448.4375
830.4  5481.5625
830.2  5417.1875
830  5574.6875
829.8  5539.375
829.6  5564.6875
829.4  5590
829.2  5540
829  5485.625
828.8  5517.8125
828.6  5683.125
828.4  5606.5625
828.2  5606.5625
828  5574.375
827.8  5555.9375
827.6  5503.4375
827.4  5566.25
827.2  5546.5625
827  5522.5
826.8  5582.1875
826.6  5496.5625
826.4  5525.9375
826.2  5467.1875
826  5555.625
825.8  5559.6875
825.6  5457.5
825.4  5581.5625
825.2  5498.125
825  5452.1875
824.8  5513.125
824.6  5540
824.4  5456.5625
824.2  5440
824  5491.25
823.8  5437.8125
823.6  5516.875
823.4  5490
823.2  5479.0625
823  5420.625
822.8  5425.3125
822.6  5436.875
822.4  5440
822.2  5523.4375
822  5431.875
821.8  5433.75
821.6  5351.875
821.4  5423.125
821.2  5467.5
821  5363.4375
820.8  5395
820.6  5398.125
820.4  5398.125
820.2  5400.625
820  5350.3125
819.8  5341.25
819.6  5361.875
819.4  5451.5625
819.2  5381.5625
819  5402.1875
818.8  5330.3125
818.6  5401.875
818.4  5327.8125
818.2  5374.6875
818  5380.3125
817.8  5340.9375
817.6  5346.875
817.4  5333.75
817.2  5380.3125
817  5267.5
816.8  5354.375
816.6  5414.6875
816.4  5271.875
816.2  5287.8125
816  5306.25
815.8  5313.4375
815.6  5282.8125
815.4  5284.375
815.2  5306.5625
815  5281.25
814.8  5197.5
814.6  5297.5
814.4  5278.75
814.2  5242.5
814  5285.3125
813.8  5249.0625
813.6  5312.1875
813.4  5307.8125
813.2  5260.9375
813  5278.75
812.8  5286.875
812.6  5308.75
812.4  5272.8125
812.2  5205.625
812  5296.25
811.8  5244.6875
811.6  5235.9375
811.4  5310
811.2  5200.9375
811  5294.6875
810.8  5171.25
810.6  5228.125
810.4  5286.5625
810.2  5270.625
810  5287.1875
809.8  5242.1875
809.6  5281.5625
809.4  5300.3125
809.2  5234.0625
809  5271.25
808.8  5375.625
808.6  5313.125
808.4  5369.375
808.2  5365.625
808  5364.0625
807.8  5362.1875
807.6  5310.625
807.4  5403.125
807.2  5311.875
807  5320.3125
806.8  5362.1875
806.6  5254.0625
806.4  5393.75
806.2  5379.6875
806  5305.625
805.8  5319.6875
805.6  5319.375
805.4  5327.5
805.2  5263.125
805  5337.1875
804.8  5325.9375
804.6  5294.6875
804.4  5277.1875
804.2  5236.875
804  5232.5
803.8  5125.625
803.6  5228.125
803.4  5260.625
803.2  5153.125
803  5252.8125
802.8  5220.9375
802.6  5215.625
802.4  5264.0625
802.2  5222.1875
802  5199.0625
801.8  5187.8125
801.6  5116.875
801.4  5217.1875
801.2  5284.375
801  5200.3125
800.8  5274.6875
800.6  5174.6875
800.4  5265.3125
800.2  5310
800  5270
799.8  5285.9375
799.6  5381.875
799.4  5359.375
799.2  5369.0625
799  5429.0625
798.8  5508.75
798.6  5731.25
798.4  5815.9375
798.2  5944.375
798  6265.9375
797.8  6433.4375
797.6  6595.625
797.4  6842.5
797.2  7055.3125
797  7120
796.8  7160.3125
796.6  7052.8125
796.4  6894.6875
796.2  6705.625
796  6468.125
795.8  6097.8125
795.6  5930.3125
795.4  5761.5625
795.2  5588.75
795  5490.3125
794.8  5381.5625
794.6  5330
794.4  5325.9375
794.2  5246.5625
794  5292.8125
793.8  5226.5625
793.6  5259.0625
793.4  5210
793.2  5153.75
793  5129.0625
792.8  5193.4375
792.6  5183.4375
792.4  5242.1875
792.2  5221.5625
792  5219.0625
791.8  5209.0625
791.6  5209.6875
791.4  5148.4375
791.2  5231.25
791  5229.6875
790.8  5108.4375
790.6  5168.4375
790.4  5187.5
790.2  5106.5625
790  5147.8125
789.8  5059.0625
789.6  5060.9375
789.4  5138.75
789.2  5155.9375
789  5122.8125
788.8  5112.5
788.6  5083.4375
788.4  5149.0625
788.2  5231.875
788  5136.5625
787.8  5150
787.6  5112.8125
787.4  5077.8125
787.2  5215
787  5183.75
786.8  5156.875
786.6  5164.0625
786.4  5182.8125
786.2  5160.625
786  5192.1875
785.8  5186.25
785.6  5162.5
785.4  5154.6875
785.2  5178.75
785  5175.625
784.8  5233.4375
784.6  5256.875
784.4  5269.6875
784.2  5274.6875
784  5385.9375
783.8  5448.4375
783.6  5477.5
783.4  5669.6875
783.2  5876.25
783  5977.1875
782.8  6287.8125
782.6  6615.3125
782.4  6957.1875
782.2  7255.9375
782  7502.5
781.8  7648.75
781.6  7801.875
781.4  7828.125
781.2  7606.875
781  7377.8125
780.8  7001.875
780.6  6551.875
780.4  6370.9375
780.2  5948.4375
780  5806.875
779.8  5553.4375
779.6  5425.3125
779.4  5255.625
779.2  5221.25
779  5223.4375
778.8  5144.375
778.6  5095.9375
778.4  5017.1875
778.2  5106.875
778  4985.9375
777.8  4984.6875
777.6  4970
777.4  4966.875
777.2  4957.1875
777  4895.9375
776.8  4969.6875
776.6  4966.5625
776.4  4997.1875
776.2  4869.375
776  4946.25
775.8  4943.4375
775.6  4914.0625
775.4  4890.3125
775.2  4965.3125
775  4942.1875
774.8  4987.5
774.6  4959.0625
774.4  4922.1875
774.2  4908.125
774  4977.5
773.8  4975.625
773.6  4910.625
773.4  4970.9375
773.2  4931.875
773  4936.5625
772.8  5031.875
772.6  5020
772.4  4980
772.2  5029.375
772  5145
771.8  5060.3125
771.6  5082.1875
771.4  5137.8125
771.2  5066.25
771  5070
770.8  5043.125
770.6  4971.875
770.4  5001.875
770.2  5024.0625
770  5018.125
769.8  5011.5625
769.6  4973.4375
769.4  4991.25
769.2  4901.5625
769  4873.4375
768.8  4987.8125
768.6  4895.625
768.4  4897.1875
768.2  4885
768  4862.1875
767.8  4882.1875
767.6  4892.5
767.4  4826.25
767.2  4867.8125
767  4928.125
766.8  4875
766.6  4808.125
766.4  4842.5
766.2  4847.1875
766  4836.875
765.8  4848.75
765.6  4925.9375
765.4  4871.5625
765.2  4903.75
765  4829.375
764.8  4819.6875
764.6  4902.1875
764.4  4881.5625
764.2  4879.375
764  4862.5
763.8  4860.3125
763.6  4951.5625
763.4  4903.125
763.2  4835.3125
763  4825
762.8  4834.375
762.6  4873.4375
762.4  4893.75
762.2  4897.5
762  4885
761.8  4839.0625
761.6  4906.875
761.4  4861.5625
761.2  4950
761  4930.3125
760.8  4963.4375
760.6  4897.5
760.4  5000.3125
760.2  4973.4375
760  4956.25
759.8  4979.375
759.6  4943.75
759.4  4930
759.2  4960
759  4966.875
758.8  4935.625
758.6  4994.0625
758.4  4959.0625
758.2  4950.625
758  4949.375
757.8  4997.5
757.6  4913.125
757.4  5014.375
757.2  4888.125
757  4924.6875
756.8  4841.25
756.6  4977.5
756.4  4853.125
756.2  4880.625
756  4882.8125
755.8  4874.375
755.6  4806.875
755.4  4868.125
755.2  4834.0625
755  4795.9375
754.8  4824.6875
754.6  4814.0625
754.4  4855
754.2  4840.625
754  4868.4375
753.8  4826.875
753.6  4861.875
753.4  4788.4375
753.2  4890.625
753  4814.6875
752.8  4837.8125
752.6  4816.5625
752.4  4837.5
752.2  4786.875
752  4806.25
751.8  4805.3125
751.6  4843.4375
751.4  4863.4375
751.2  4804.6875
751  4811.875
750.8  4814.6875
750.6  4856.25
750.4  4810.9375
750.2  4802.8125
750  4781.875
749.8  4827.8125
749.6  4804.375
749.4  4819.375
749.2  4796.25
749  4789.0625
748.8  4849.6875
748.6  4794.6875
748.4  4811.875
748.2  4932.8125
748  4847.8125
747.8  4809.6875
747.6  4819.6875
747.4  4802.8125
747.2  4764.0625
747  4755.3125
746.8  4747.5
746.6  4850.9375
746.4  4843.4375
746.2  4835.9375
746  4869.0625
745.8  4829.375
745.6  4873.4375
745.4  4816.875
745.2  4815.9375
745  4827.8125
744.8  4851.25
744.6  4802.1875
744.4  4828.4375
744.2  4796.875
744  4846.25
743.8  4810.625
743.6  4762.5
743.4  4704.0625
743.2  4738.4375
743  4774.0625
742.8  4800.3125
742.6  4856.25
742.4  4794.6875
742.2  4812.8125
742  4829.6875
741.8  4827.1875
741.6  4837.8125
741.4  4906.5625
741.2  4850.9375
741  4797.1875
740.8  4795.625
740.6  4807.1875
740.4  4817.1875
740.2  4885.3125
740  4825.3125
739.8  4791.25
739.6  4846.25
739.4  4843.4375
739.2  4825.3125
739  4804.0625
738.8  4794.6875
738.6  4790.625
738.4  4889.0625
738.2  4882.5
738  4844.375
737.8  4839.0625
737.6  4863.75
737.4  4831.875
737.2  4867.1875
737  4796.875
736.8  4884.0625
736.6  4841.875
736.4  4811.25
736.2  4850.9375
736  4861.875
735.8  4810
735.6  4864.0625
735.4  4866.25
735.2  4815
735  4831.5625
734.8  4870.3125
734.6  4855.3125
734.4  4795
734.2  4837.5
734  4855.625
733.8  4827.5
733.6  4826.875
733.4  4789.375
733.2  4854.375
733  4815.625
732.8  4840.3125
732.6  4767.8125
732.4  4852.1875
732.2  4804.375
732  4804.375
731.8  4829.0625
731.6  4858.75
731.4  4745.3125
731.2  4821.25
731  4789.0625
730.8  4860.625
730.6  4838.4375
730.4  4757.1875
730.2  4880
730  4853.125
729.8  4827.1875
729.6  4881.5625
729.4  4790.9375
729.2  4832.8125
729  4822.5
728.8  4767.8125
728.6  4837.8125
728.4  4823.75
728.2  4923.125
728  4815.9375
727.8  4862.5
727.6  4819.375
727.4  4781.25
727.2  4923.125
727  4883.75
726.8  4802.8125
726.6  4841.875
726.4  4779.0625
726.2  4791.5625
726  4829.375
725.8  4880.3125
725.6  4845
725.4  4809.6875
725.2  4800
725  4839.375
724.8  4832.1875
724.6  4844.6875
724.4  4831.25
724.2  4887.5
724  4844.6875
723.8  4857.8125
723.6  4860.625
723.4  4873.75
723.2  4821.875
723  4845.625
722.8  4849.0625
722.6  4837.1875
722.4  4821.875
722.2  4872.5
722  4837.5
721.8  4930
721.6  4737.5
721.4  4808.75
721.2  4849.6875
721  4870.625
720.8  4877.5
720.6  4840.625
720.4  4889.375
720.2  4895.3125
720  4888.125
719.8  4881.5625
719.6  4923.125
719.4  4890.9375
719.2  4945.9375
719  4875
718.8  4897.5
718.6  4933.125
718.4  4974.6875
718.2  5003.125
718  5018.4375
717.8  4995
717.6  5003.125
717.4  5085.3125
717.2  4953.125
717  5046.875
716.8  5072.5
716.6  5060
716.4  5097.8125
716.2  5068.75
716  4910.9375
715.8  4884.6875
715.6  4914.0625
715.4  4845.625
715.2  4886.875
715  4819.6875
714.8  4765.625
714.6  4833.75
714.4  4773.125
714.2  4844.0625
714  4846.875
713.8  4754.6875
713.6  4764.0625
713.4  4745.9375
713.2  4678.4375
713  4734.6875
712.8  4752.1875
712.6  4636.875
712.4  4712.5
712.2  4678.125
712  4654.6875
711.8  4658.75
711.6  4674.375
711.4  4768.125
711.2  4717.8125
711  4751.5625
710.8  4704.6875
710.6  4739.375
710.4  4710.625
710.2  4740.3125
710  4686.875
709.8  4690.625
709.6  4684.6875
709.4  4718.4375
709.2  4731.875
709  4779.6875
708.8  4761.25
708.6  4834.375
708.4  4789.0625
708.2  4859.375
708  4958.125
707.8  4889.375
707.6  5065.3125
707.4  5039.0625
707.2  5028.125
707  5185.625
706.8  5280.9375
706.6  5230
706.4  5268.75
706.2  5378.125
706  5448.75
705.8  5551.5625
705.6  5618.125
705.4  5674.6875
705.2  5749.0625
705  5760.3125
704.8  5819.0625
704.6  5769.375
704.4  5820.625
704.2  5779.0625
704  5731.5625
703.8  5580.3125
703.6  5515.9375
703.4  5451.875
703.2  5432.8125
703  5333.4375
702.8  5095.3125
702.6  5071.875
702.4  5042.8125
702.2  4961.25
702  4907.5
701.8  4886.25
701.6  4743.75
701.4  4748.125
701.2  4709.375
701  4669.6875
700.8  4666.875
700.6  4623.75
700.4  4630.9375
700.2  4633.75
700  4580.3125
699.8  4569.375
699.6  4558.75
699.4  4456.875
699.2  4558.125
699  4595.625
698.8  4511.25
698.6  4570.9375
698.4  4495.9375
698.2  4528.125
698  4472.8125
697.8  4489.375
697.6  4541.25
697.4  4666.5625
697.2  4576.875
697  4479.0625
696.8  4494.6875
696.6  4548.4375
696.4  4517.8125
696.2  4429.0625
696  4511.875
695.8  4546.5625
695.6  4538.125
695.4  4585.625
695.2  4552.8125
695  4672.1875
694.8  4568.75
694.6  4557.5
694.4  4534.375
694.2  4550.9375
694  4591.5625
693.8  4600.3125
693.6  4538.125
693.4  4504.375
693.2  4483.4375
693  4579.0625
692.8  4578.125
692.6  4518.4375
692.4  4495.9375
692.2  4508.4375
692  4496.25
691.8  4496.5625
691.6  4542.5
691.4  4523.4375
691.2  4473.75
691  4481.25
690.8  4532.1875
690.6  4492.5
690.4  4522.1875
690.2  4454.6875
690  4519.375
689.8  4467.8125
689.6  4498.4375
689.4  4470.9375
689.2  4455.625
689  4469.6875
688.8  4455
688.6  4440.625
688.4  4414.0625
688.2  4468.75
688  4447.8125
687.8  4471.875
687.6  4418.4375
687.4  4447.1875
687.2  4438.125
687  4421.5625
686.8  4378.4375
686.6  4438.4375
686.4  4478.4375
686.2  4490.3125
686  4388.75
685.8  4485
685.6  4419.375
685.4  4440.625
685.2  4428.75
685  4488.75
684.8  4386.5625
684.6  4403.4375
684.4  4493.4375
684.2  4385.9375
684  4379.6875
683.8  4402.8125
683.6  4447.8125
683.4  4421.875
683.2  4347.1875
683  4405.625
682.8  4312.8125
682.6  4379.375
682.4  4332.1875
682.2  4377.5
682  4406.5625
681.8  4305.625
681.6  4335.9375
681.4  4367.5
681.2  4299.375
681  4345.625
680.8  4321.25
680.6  4313.75
680.4  4302.1875
680.2  4331.25
680  4350.9375
679.8  4258.4375
679.6  4332.8125
679.4  4322.1875
679.2  4341.25
679  4334.0625
678.8  4332.5
678.6  4325
678.4  4332.5
678.2  4305.9375
678  4336.875
677.8  4287.8125
677.6  4225
677.4  4242.1875
677.2  4203.75
677  4268.4375
676.8  4251.5625
676.6  4175.9375
676.4  4212.5
676.2  4251.5625
676  4192.8125
675.8  4117.1875
675.6  4152.5
675.4  4236.5625
675.2  4157.1875
675  4197.5
674.8  4160
674.6  4174.0625
674.4  4147.5
674.2  4182.8125
674  4082.8125
673.8  4098.75
673.6  4130.3125
673.4  4105.3125
673.2  4111.875
673  4168.75
672.8  4193.75
672.6  4210.9375
672.4  4269.375
672.2  4150.625
672  4227.1875
671.8  4259.375
671.6  4332.5
671.4  4295.9375
671.2  4291.25
671  4354.0625
670.8  4382.1875
670.6  4440.9375
670.4  4530
670.2  4560.625
670  4740.625
669.8  4778.125
669.6  4794.6875
669.4  4994.0625
669.2  5147.5
669  5276.25
668.8  5293.125
668.6  5418.125
668.4  5628.125
668.2  5680.3125
668  5820
667.8  6010.9375
667.6  6131.875
667.4  6194.375
667.2  6342.5
667  6309.0625
666.8  6464.375
666.6  6350.3125
666.4  6380.9375
666.2  6374.375
666  6153.125
665.8  5968.75
665.6  5853.4375
665.4  5683.75
665.2  5514.375
665  5320
664.8  5209.0625
664.6  5036.5625
664.4  4862.1875
664.2  4765.625
664  4740.3125
663.8  4599.375
663.6  4521.875
663.4  4419.375
663.2  4290.625
663  4313.75
662.8  4199.375
662.6  4177.8125
662.4  4129.0625
662.2  4148.125
662  4064.0625
661.8  4087.5
661.6  3985.9375
661.4  4024.6875
661.2  3978.125
661  4037.1875
660.8  3956.25
660.6  3919.0625
660.4  3950.3125
660.2  3952.8125
660  4006.875
659.8  3914.375
659.6  3927.1875
659.4  3922.1875
659.2  3910.3125
659  3865.3125
658.8  3834.0625
658.6  3918.4375
658.4  3870.625
658.2  3914.375
658  3964.0625
657.8  3936.25
657.6  3954.6875
657.4  3919.375
657.2  3917.5
657  3973.4375
656.8  4000.625
656.6  3966.25
656.4  3958.75
656.2  3908.125
656  3954.0625
655.8  3886.5625
655.6  3895.625
655.4  3880.9375
655.2  3882.5
655  3785.625
654.8  3901.25
654.6  3883.75
654.4  3845.3125
654.2  3828.4375
654  3780.3125
653.8  3805
653.6  3751.875
653.4  3770.625
653.2  3693.4375
653  3794.6875
652.8  3714.6875
652.6  3722.8125
652.4  3694.0625
652.2  3643.4375
652  3676.25
651.8  3696.875
651.6  3677.1875
651.4  3670.625
651.2  3619.375
651  3649.0625
650.8  3717.1875
650.6  3652.5
650.4  3651.875
650.2  3698.125
650  3635.625
649.8  3618.75
649.6  3604.375
649.4  3621.5625
649.2  3564.375
649  3711.875
648.8  3617.8125
648.6  3698.75
648.4  3615.3125
648.2  3589.0625
648  3611.875
647.8  3607.5
647.6  3583.75
647.4  3633.125
647.2  3645.625
647  3630.625
646.8  3540.3125
646.6  3654.6875
646.4  3555
646.2  3643.75
646  3619.0625
645.8  3576.5625
645.6  3652.5
645.4  3618.75
645.2  3544.6875
645  3562.5
644.8  3643.4375
644.6  3597.8125
644.4  3670.9375
644.2  3656.5625
644  3599.0625
643.8  3630.9375
643.6  3571.5625
643.4  3584.0625
643.2  3591.25
643  3628.125
642.8  3538.75
642.6  3611.875
642.4  3565.3125
642.2  3590
642  3553.75
641.8  3619.375
641.6  3540
641.4  3597.1875
641.2  3568.125
641  3619.6875
640.8  3615.3125
640.6  3611.5625
640.4  3616.875
640.2  3540.3125
640  3618.4375
639.8  3552.5
639.6  3536.25
639.4  3586.5625
639.2  3530.625
639  3608.75
638.8  3571.25
638.6  3540.9375
638.4  3551.5625
638.2  3536.875
638  3553.75
637.8  3553.75
637.6  3568.75
637.4  3530.3125
637.2  3545
637  3596.875
636.8  3520
636.6  3575
636.4  3581.875
636.2  3606.25
636  3596.5625
635.8  3585
635.6  3574.6875
635.4  3629.0625
635.2  3542.5
635  3556.5625
634.8  3575.625
634.6  3592.8125
634.4  3572.1875
634.2  3543.4375
634  3535
633.8  3593.125
633.6  3606.5625
633.4  3544.6875
633.2  3585
633  3535.625
632.8  3567.1875
632.6  3565
632.4  3577.1875
632.2  3569.0625
632  3613.75
631.8  3545.9375
631.6  3506.25
631.4  3530.625
631.2  3500
631  3586.25
630.8  3589.0625
630.6  3593.125
630.4  3562.8125
630.2  3574.0625
630  3562.8125
629.8  3532.1875
629.6  3540.3125
629.4  3541.5625
629.2  3600.3125
629  3575.625
628.8  3591.875
628.6  3531.5625
628.4  3544.375
628.2  3532.5
628  3523.75
627.8  3531.25
627.6  3591.25
627.4  3545.625
627.2  3536.875
627  3590.625
626.8  3526.25
626.6  3575.625
626.4  3549.0625
626.2  3560.9375
626  3543.125
625.8  3570
625.6  3512.8125
625.4  3623.4375
625.2  3509.375
625  3547.5
624.8  3514.6875
624.6  3496.25
624.4  3530.625
624.2  3625.625
624  3515.9375
623.8  3560.3125
623.6  3472.8125
623.4  3566.25
623.2  3529.375
623  3480.625
622.8  3544.6875
622.6  3546.5625
622.4  3544.6875
622.2  3525.3125
622  3519.6875
621.8  3537.8125
621.6  3598.4375
621.4  3540.3125
621.2  3578.4375
621  3588.4375
620.8  3545.3125
620.6  3590
620.4  3500
620.2  3578.125
620  3524.375
619.8  3514.375
619.6  3606.5625
619.4  3592.1875
619.2  3587.5
619  3576.25
618.8  3604.6875
618.6  3549.375
618.4  3521.25
618.2  3544.375
618  3585.9375
617.8  3480.3125
617.6  3575.9375
617.4  3515.625
617.2  3582.5
617  3594.0625
616.8  3523.4375
616.6  3513.125
616.4  3569.6875
616.2  3580
616  3517.8125
615.8  3565.9375
615.6  3571.875
615.4  3596.5625
615.2  3619.0625
615  3576.5625
614.8  3549.375
614.6  3568.125
614.4  3608.4375
614.2  3549.0625
614  3576.25
613.8  3566.25
613.6  3575.625
613.4  3551.875
613.2  3574.0625
613  3561.25
612.8  3595.625
612.6  3505.625
612.4  3539.375
612.2  3538.4375
612  3545.9375
611.8  3517.1875
611.6  3575
611.4  3567.1875
611.2  3546.5625
611  3550.3125
610.8  3547.5
610.6  3537.1875
610.4  3554.375
610.2  3617.8125
610  3545.625
609.8  3546.25
609.6  3566.25
609.4  3504.375
609.2  3495.625
609  3539.375
608.8  3540.3125
608.6  3575.3125
608.4  3516.875
608.2  3560.625
608  3558.75
607.8  3567.5
607.6  3508.75
607.4  3561.5625
607.2  3625.9375
607  3534.0625
606.8  3554.375
606.6  3510.3125
606.4  3591.25
606.2  3509.6875
606  3548.4375
605.8  3577.5
605.6  3567.1875
605.4  3583.125
605.2  3573.75
605  3534.0625
604.8  3520
604.6  3584.0625
604.4  3529.6875
604.2  3522.8125
604  3570.3125
603.8  3580
603.6  3552.8125
603.4  3581.5625
603.2  3502.5
603  3599.6875
602.8  3573.4375
602.6  3575.3125
602.4  3583.75
602.2  3556.5625
602  3578.75
601.8  3568.125
601.6  3588.125
601.4  3506.875
601.2  3529.0625
601  3558.75
600.8  3640
600.6  3577.5
600.4  3577.1875
600.2  3561.875
600  3565
599.8  3554.6875
599.6  3541.875
599.4  3530
599.2  3608.4375
599  3552.1875
598.8  3527.5
598.6  3591.25
598.4  3553.75
598.2  3591.5625
598  3609.375
597.8  3569.6875
597.6  3570.625
597.4  3623.4375
597.2  3568.4375
597  3591.25
596.8  3525.9375
596.6  3595.9375
596.4  3563.4375
596.2  3590.3125
596  3568.4375
595.8  3603.4375
595.6  3602.1875
595.4  3609.375
595.2  3580
595  3620
594.8  3636.25
594.6  3590.625
594.4  3551.5625
594.2  3544.0625
594  3553.75
593.8  3597.8125
593.6  3601.25
593.4  3617.8125
593.2  3556.5625
593  3600.9375
592.8  3557.1875
592.6  3593.4375
592.4  3580.9375
592.2  3512.5
592  3490.625
591.8  3486.25
591.6  3573.125
591.4  3538.4375
591.2  3507.1875
591  3564.6875
590.8  3522.8125
590.6  3487.8125
590.4  3542.1875
590.2  3590.625
590  3550.625
589.8  3498.4375
589.6  3536.25
589.4  3528.4375
589.2  3557.8125
589  3579.375
588.8  3605
588.6  3513.75
588.4  3596.25
588.2  3555.625
588  3634.0625
587.8  3542.1875
587.6  3460
587.4  3552.1875
587.2  3551.875
587  3582.1875
586.8  3614.6875
586.6  3568.4375
586.4  3582.1875
586.2  3607.5
586  3584.6875
585.8  3574.6875
585.6  3566.5625
585.4  3571.25
585.2  3605.3125
585  3585.625
584.8  3595.625
584.6  3570.625
584.4  3525.625
584.2  3584.6875
584  3520.3125
583.8  3545.9375
583.6  3563.75
583.4  3548.75
583.2  3625.9375
583  3515.9375
582.8  3530
582.6  3527.5
582.4  3582.8125
582.2  3582.5
582  3557.8125
581.8  3601.875
581.6  3498.75
581.4  3521.875
581.2  3565.3125
581  3558.4375
580.8  3548.4375
580.6  3560.625
580.4  3585.625
580.2  3626.875
580  3569.375
579.8  3560.9375
579.6  3579.375
579.4  3615.9375
579.2  3585
579  3593.4375
578.8  3489.6875
578.6  3580
578.4  3634.0625
578.2  3596.5625
578  3553.4375
577.8  3555.9375
577.6  3491.875
577.4  3527.1875
577.2  3604.375
577  3569.0625
576.8  3543.75
576.6  3600.3125
576.4  3555.9375
576.2  3535
576  3590
575.8  3529.6875
575.6  3632.5
575.4  3614.375
575.2  3607.5
575  3578.125
574.8  3564.6875
574.6  3591.5625
574.4  3578.125
574.2  3570.3125
574  3553.4375
573.8  3595.625
573.6  3557.8125
573.4  3656.875
573.2  3580.9375
573  3541.25
572.8  3611.5625
572.6  3580.3125
572.4  3546.875
572.2  3550.9375
572  3563.4375
571.8  3564.0625
571.6  3670.3125
571.4  3547.1875
571.2  3552.8125
571  3572.8125
570.8  3552.8125
570.6  3582.1875
570.4  3603.125
570.2  3590.625
570  3579.6875
569.8  3562.1875
569.6  3532.8125
569.4  3614.0625
569.2  3611.875
569  3557.5
568.8  3561.5625
568.6  3626.5625
568.4  3568.75
568.2  3582.1875
568  3600.625
567.8  3585.3125
567.6  3549.6875
567.4  3563.125
567.2  3502.8125
567  3621.25
566.8  3532.5
566.6  3577.8125
566.4  3615.3125
566.2  3478.75
566  3591.25
565.8  3540.9375
565.6  3582.1875
565.4  3522.5
565.2  3593.75
565  3568.125
564.8  3544.0625
564.6  3598.75
564.4  3479.0625
564.2  3585
564  3618.125
563.8  3545.625
563.6  3533.125
563.4  3585.9375
563.2  3594.0625
563  3550.3125
562.8  3544.6875
562.6  3526.875
562.4  3533.125
562.2  3569.6875
562  3542.5
561.8  3541.25
561.6  3573.75
561.4  3547.1875
561.2  3623.4375
561  3612.8125
560.8  3548.125
560.6  3627.8125
560.4  3543.75
560.2  3570.9375
560  3572.1875
559.8  3590.9375
559.6  3579.0625
559.4  3590.3125
559.2  3643.75
559  3603.125
558.8  3594.6875
558.6  3583.75
558.4  3578.4375
558.2  3616.875
558  3633.4375
557.8  3650
557.6  3627.1875
557.4  3606.25
557.2  3578.4375
557  3640.3125
556.8  3590.9375
556.6  3671.5625
556.4  3587.8125
556.2  3612.8125
556  3584.0625
555.8  3650.625
555.6  3646.875
555.4  3600
555.2  3599.0625
555  3609.6875
554.8  3622.8125
554.6  3793.75
554.4  3640.625
554.2  3633.125
554  3677.1875
553.8  3668.75
553.6  3635
553.4  3624.6875
553.2  3642.1875
553  3611.875
552.8  3618.75
552.6  3661.875
552.4  3659.6875
552.2  3696.875
552  3663.125
551.8  3643.75
551.6  3666.25
551.4  3656.875
551.2  3660.3125
551  3684.6875
550.8  3606.25
550.6  3653.125
550.4  3673.4375
550.2  3704.6875
550  3661.25
549.8  3619.375
549.6  3637.5
549.4  3635.3125
549.2  3647.5
549  3672.5
548.8  3581.875
548.6  3634.375
548.4  3690
548.2  3682.1875
548  3621.25
547.8  3618.125
547.6  3661.875
547.4  3660.625
547.2  3603.4375
547  3635.625
546.8  3655
546.6  3626.875
546.4  3603.125
546.2  3594.375
546  3532.8125
545.8  3584.375
545.6  3515
545.4  3506.875
545.2  3535.9375
545  3490.9375
544.8  3486.5625
544.6  3529.6875
544.4  3538.75
544.2  3487.1875
544  3481.875
543.8  3512.1875
543.6  3469.0625
543.4  3434.375
543.2  3429.0625
543  3414.375
542.8  3450
542.6  3417.5
542.4  3473.125
542.2  3465.9375
542  3405.9375
541.8  3492.5
541.6  3465.3125
541.4  3399.375
541.2  3455.3125
541  3330.625
540.8  3429.375
540.6  3410
540.4  3434.6875
540.2  3385
540  3370
539.8  3393.4375
539.6  3402.8125
539.4  3358.75
539.2  3334.0625
539  3412.8125
538.8  3411.25
538.6  3353.125
538.4  3380
538.2  3320.625
538  3332.8125
537.8  3358.75
537.6  3323.75
537.4  3326.25
537.2  3326.25
537  3334.6875
536.8  3360.3125
536.6  3313.125
536.4  3341.25
536.2  3289.6875
536  3320.3125
535.8  3318.125
535.6  3350.3125
535.4  3432.8125
535.2  3432.1875
535  3409.375
534.8  3465.625
534.6  3511.25
534.4  3589.375
534.2  3621.5625
534  3651.875
533.8  3833.125
533.6  3901.25
533.4  3968.4375
533.2  4123.75
533  4333.125
532.8  4484.0625
532.6  4619.375
532.4  4758.4375
532.2  4960
532  5082.1875
531.8  5278.75
531.6  5527.5
531.4  5602.5
531.2  5784.0625
531  5870
530.8  5772.1875
530.6  5625.625
530.4  5278.75
530.2  4911.25
530  4519.375
529.8  4211.25
529.6  3896.25
529.4  3800.3125
529.2  3618.4375
529  3523.75
528.8  3431.875
528.6  3382.1875
528.4  3352.8125
528.2  3300.9375
528  3300
527.8  3230.3125
527.6  3227.1875
527.4  3237.8125
527.2  3280.9375
527  3207.5
526.8  3228.125
526.6  3228.75
526.4  3277.8125
526.2  3237.8125
526  3238.4375
525.8  3234.375
525.6  3198.75
525.4  3281.5625
525.2  3295.9375
525  3260.625
524.8  3250.625
524.6  3244.0625
524.4  3245.3125
524.2  3249.6875
524  3247.1875
523.8  3263.4375
523.6  3260
523.4  3254.375
523.2  3264.0625
523  3348.4375
522.8  3291.5625
522.6  3328.4375
522.4  3312.1875
522.2  3361.875
522  3378.75
521.8  3440.9375
521.6  3393.125
521.4  3439.375
521.2  3383.75
521  3385.3125
520.8  3353.125
520.6  3392.8125
520.4  3333.125
520.2  3274.6875
520  3353.75
519.8  3335.625
519.6  3264.6875
519.4  3333.125
519.2  3340.3125
519  3320
518.8  3266.5625
518.6  3289.6875
518.4  3255.625
518.2  3266.5625
518  3241.25
517.8  3256.5625
517.6  3218.125
517.4  3177.8125
517.2  3191.875
517  3241.5625
516.8  3205.3125
516.6  3195
516.4  3261.25
516.2  3240
516  3135.9375
515.8  3242.5
515.6  3207.5
515.4  3165
515.2  3237.1875
515  3184.0625
514.8  3192.5
514.6  3237.1875
514.4  3239.375
514.2  3219.0625
514  3230.3125
513.8  3232.8125
513.6  3182.8125
513.4  3250
513.2  3252.1875
513  3233.75
512.8  3250.3125
512.6  3236.5625
512.4  3255.625
512.2  3203.75
512  3240.9375
511.8  3210.3125
511.6  3231.5625
511.4  3288.125
511.2  3206.25
511  3262.1875
510.8  3282.5
510.6  3233.125
510.4  3227.1875
510.2  3216.25
510  3175.625
509.8  3247.1875
509.6  3212.8125
509.4  3272.5
509.2  3276.5625
509  3229.6875
508.8  3204.375
508.6  3264.0625
508.4  3222.1875
508.2  3216.5625
508  3304.375
507.8  3268.75
507.6  3245
507.4  3213.125
507.2  3147.5
507  3244.6875
506.8  3214.0625
506.6  3199.0625
506.4  3225.625
506.2  3239.0625
506  3236.25
505.8  3222.5
505.6  3191.5625
505.4  3187.8125
505.2  3201.5625
505  3200.625
504.8  3174.0625
504.6  3188.4375
504.4  3154.0625
504.2  3219.0625
504  3174.375
503.8  3176.25
503.6  3189.375
503.4  3164.6875
503.2  3159.6875
503  3212.1875
502.8  3217.8125
502.6  3181.25
502.4  3197.8125
502.2  3194.6875
502  3187.8125
501.8  3201.25
501.6  3186.5625
501.4  3156.5625
501.2  3162.8125
501  3214.375
500.8  3163.125
500.6  3164.6875
500.4  3175.625
500.2  3150
500  3173.4375
499.8  3207.1875
499.6  3179.0625
499.4  3197.5
499.2  3262.5
499  3187.8125
498.8  3227.8125
498.6  3236.25
498.4  3323.4375
498.2  3334.0625
498  3347.1875
497.8  3358.75
497.6  3424.0625
497.4  3470
497.2  3540
497  3555.3125
496.8  3601.875
496.6  3774.6875
496.4  3782.1875
496.2  3873.75
496  3867.1875
495.8  3875.9375
495.6  3880.625
495.4  3846.5625
495.2  3815
495  3648.4375
494.8  3589.375
494.6  3477.8125
494.4  3375.3125
494.2  3280
494  3199.375
493.8  3119.6875
493.6  3165.625
493.4  3097.1875
493.2  3118.4375
493  3099.0625
492.8  3069.6875
492.6  3131.25
492.4  3093.75
492.2  3071.875
492  3071.875
491.8  3149.6875
491.6  3101.5625
491.4  3091.875
491.2  3079.0625
491  3153.75
490.8  3120.9375
490.6  3134.375
490.4  3165.625
490.2  3152.5
490  3234.0625
489.8  3217.5
489.6  3262.8125
489.4  3361.25
489.2  3468.125
489  3506.875
488.8  3563.75
488.6  3686.25
488.4  3792.8125
488.2  3753.75
488  3981.5625
487.8  4014.0625
487.6  4162.5
487.4  4141.5625
487.2  4200.9375
487  4058.4375
486.8  4035.3125
486.6  3871.5625
486.4  3883.4375
486.2  3538.4375
486  3459.375
485.8  3397.1875
485.6  3325.3125
485.4  3208.4375
485.2  3213.125
485  3195
484.8  3133.125
484.6  3098.125
484.4  3136.5625
484.2  3114.6875
484  3076.5625
483.8  3077.8125
483.6  3103.125
483.4  3032.8125
483.2  3120.3125
483  3060.9375
482.8  3103.4375
482.6  3106.875
482.4  3020.9375
482.2  3063.75
482  3117.8125
481.8  3056.25
481.6  3116.875
481.4  3124.375
481.2  3142.8125
481  3088.4375
480.8  3126.875
480.6  3080.3125
480.4  3041.875
480.2  3126.5625
480  3083.4375
479.8  3171.25
479.6  3058.75
479.4  3165.625
479.2  3187.1875
479  3198.4375
478.8  3133.125
478.6  3151.25
478.4  3175.9375
478.2  3161.875
478  3215.625
477.8  3220.9375
477.6  3226.875
477.4  3278.75
477.2  3217.8125
477  3206.5625
476.8  3155
476.6  3178.4375
476.4  3169.375
476.2  3215.3125
476  3120
475.8  3187.8125
475.6  3206.25
475.4  3182.8125
475.2  3198.4375
475  3210
474.8  3198.125
474.6  3246.25
474.4  3183.125
474.2  3197.8125
474  3200.3125
473.8  3197.1875
473.6  3254.6875
473.4  3263.4375
473.2  3260.3125
473  3237.5
472.8  3220
472.6  3237.1875
472.4  3179.375
472.2  3240
472  3225.3125
471.8  3239.375
471.6  3295.9375
471.4  3259.6875
471.2  3230
471  3266.875
470.8  3215.9375
470.6  3253.125
470.4  3253.125
470.2  3233.125
470  3270
469.8  3216.5625
469.6  3232.8125
469.4  3250.9375
469.2  3216.5625
469  3250.625
468.8  3342.8125
468.6  3273.75
468.4  3178.75
468.2  3231.875
468  3205.625
467.8  3219.375
467.6  3176.875
467.4  3194.375
467.2  3219.6875
467  3175.3125
466.8  3185.9375
466.6  3145.9375
466.4  3085.625
466.2  3151.5625
466  3126.25
465.8  3118.125
465.6  3150.9375
465.4  3127.8125
465.2  3149.375
465  3075
464.8  3107.8125
464.6  3157.8125
464.4  3158.125
464.2  3065
464  3043.125
463.8  3066.875
463.6  3001.5625
463.4  3036.5625
463.2  3024.0625
463  2927.1875
462.8  3009.6875
462.6  2944.0625
462.4  2889.375
462.2  2919.375
462  2925
461.8  2847.8125
461.6  2818.4375
461.4  2823.125
461.2  2803.4375
461  2790.3125
460.8  2794.0625
460.6  2782.5
460.4  2677.1875
460.2  2710
460  2706.25
459.8  2601.875
459.6  2633.75
459.4  2646.25
459.2  2636.5625
459  2611.5625
458.8  2566.875
458.6  2551.5625
458.4  2522.1875
458.2  2518.75
458  2484.375
457.8  2509.6875
457.6  2533.4375
457.4  2614.375
457.2  2531.875
457  2583.4375
456.8  2602.1875
456.6  2624.375
456.4  2637.5
456.2  2740
456  2763.125
455.8  2883.125
455.6  3038.125
455.4  3217.8125
455.2  3437.8125
455  3713.75
454.8  4082.1875
454.6  4512.1875
454.4  5008.4375
454.2  5546.5625
454  6133.125
453.8  6720.9375
453.6  7299.375
453.4  7767.8125
453.2  8187.8125
453  8349.0625
452.8  8231.5625
452.6  7936.875
452.4  7385.3125
452.2  6537.1875
452  5568.75
451.8  4696.5625
451.6  3908.75
451.4  3298.75
451.2  2865
451  2570
450.8  2304.6875
450.6  2152.1875
450.4  2094.6875
450.2  2032.1875
450  1991.5625
449.8  1973.125
449.6  2061.25
449.4  2029.6875
449.2  2035.9375
449  2094.6875
448.8  2176.875
448.6  2346.875
448.4  2386.25
448.2  2641.875
448  2864.375
447.8  3200.9375
447.6  3600.3125
447.4  4009.6875
447.2  4578.75
447  5272.8125
446.8  6038.75
446.6  6862.8125
446.4  7794.375
446.2  8603.125
446  9376.25
445.8  10091.563
445.6  10534.375
445.4  10934.375
445.2  10602.813
445  10086.875
444.8  9344.6875
444.6  8016.875
444.4  6766.875
444.2  5459.0625
444  4506.875
443.8  3681.25
443.6  3144.6875
443.4  2767.5
443.2  2526.5625
443  2394.6875
442.8  2270.9375
442.6  2185.3125
442.4  2058.75
442.2  1951.25
442  1902.5
441.8  1797.1875
441.6  1728.125
441.4  1683.125
441.2  1693.75
441  1615.3125
440.8  1633.125
440.6  1575.625
440.4  1495
440.2  1539.0625
440  1487.1875
439.8  1422.1875
439.6  1383.75
439.4  1385.9375
439.2  1342.1875
439  1358.75
438.8  1302.5
438.6  1345.625
438.4  1304.0625
438.2  1311.25
438  1370.625
437.8  1334.375
437.6  1409.6875
437.4  1407.8125
437.2  1451.25
437  1517.8125
436.8  1556.5625
436.6  1640
436.4  1713.4375
436.2  1742.1875
436  1816.875
435.8  1862.8125
435.6  1895.625
435.4  1897.1875
435.2  1870.9375
435  1821.25
434.8  1769.375
434.6  1714.0625
434.4  1635.625
434.2  1625.9375
434  1582.1875
433.8  1557.5
433.6  1519.6875
433.4  1500.3125
433.2  1453.125
433  1409.0625
432.8  1377.1875
432.6  1341.875
432.4  1334.0625
432.2  1251.875
432  1234.0625
431.8  1179.375
431.6  1151.25
431.4  1150.3125
431.2  1158.4375
431  1140.3125
430.8  1135.3125
430.6  1134.6875
430.4  1146.25
430.2  1133.125
430  1134.0625
429.8  1145.3125
429.6  1138.125
429.4  1142.8125
429.2  1101.875
429  1101.5625
428.8  1099.0625
428.6  1076.875
428.4  1114.375
428.2  1093.125
428  1104.6875
427.8  1089.375
427.6  1090.9375
427.4  1112.1875
427.2  1123.125
427  1096.25
426.8  1082.1875
426.6  1114.6875
426.4  1140
426.2  1120.625
426  1105.625
425.8  1126.5625
425.6  1125
425.4  1119.375
425.2  1115.9375
425  1124.375
424.8  1095.3125
424.6  1110
424.4  1105.9375
424.2  1126.875
424  1072.1875
423.8  1095
423.6  1088.75
423.4  1085.625
423.2  1071.25
423  1095
422.8  1098.4375
422.6  1074.6875
422.4  1036.5625
422.2  1115.625
422  1068.75
421.8  1071.25
421.6  1092.1875
421.4  1077.5
421.2  1052.1875
421  1074.6875
420.8  1064.375
420.6  1083.75
420.4  1054.0625
420.2  1071.5625
420  1045.3125
419.8  1070
419.6  1021.875
419.4  1073.125
419.2  1110.3125
419  1075.625
418.8  1054.0625
418.6  1043.4375
418.4  1024.0625
418.2  1055.9375
418  1057.8125
417.8  1092.8125
417.6  1076.5625
417.4  1087.8125
417.2  1058.75
417  1036.25
416.8  1048.4375
416.6  1101.25
416.4  1049.0625
416.2  1016.5625
416  1074.375
415.8  1050.3125
415.6  1077.5
415.4  1048.75
415.2  1044.375
415  1054.0625
414.8  1059.0625
414.6  1060.625
414.4  1054.6875
414.2  1041.25
414  1014.375
413.8  1053.125
413.6  1045.9375
413.4  1069.6875
413.2  1055
413  1064.0625
412.8  1042.8125
412.6  1007.1875
412.4  1028.75
412.2  1064.0625
412  1037.8125
411.8  1035.3125
411.6  1062.1875
411.4  1053.4375
411.2  1030
411  1041.5625
410.8  1079.375
410.6  1050.9375
410.4  1000.625
410.2  1021.25
410  1026.25
409.8  1007.8125
409.6  1083.125
409.4  1048.4375
409.2  1023.4375
409  1033.75
408.8  1050
408.6  1043.75
408.4  1050.3125
408.2  1067.1875
408  1032.5
407.8  1046.25
407.6  1058.75
407.4  1014.6875
407.2  1065.3125
407  1024.375
406.8  1053.75
406.6  1043.125
406.4  1066.5625
406.2  1007.8125
406  1050
405.8  1061.25
405.6  1034.0625
405.4  1040
405.2  1040.625
405  1025.9375
404.8  1060.9375
404.6  1065.3125
404.4  1063.75
404.2  1052.1875
404  1025.3125
403.8  1015.9375
403.6  1053.75
403.4  1067.8125
403.2  1018.75
403  1058.4375
402.8  1032.8125
402.6  1020.3125
402.4  1055.3125
402.2  1039.6875
402  1054.0625
401.8  1060.9375
401.6  1051.875
401.4  1053.4375
401.2  1061.25
401  1040.9375
400.8  1052.1875
400.6  1035.9375
400.4  1090.3125
400.2  1010.3125
400  1049.6875
399.8  1053.4375
399.6  1050
399.4  1039.0625
399.2  1060
399  1033.4375
398.8  1042.8125
398.6  1049.6875
398.4  1036.875
398.2  1057.5
398  1055.9375
397.8  975
397.6  988.75
397.4  1055
397.2  1039.375
397  1053.125
396.8  1069.0625
396.6  959.375
396.4  1027.1875
396.2  1028.4375
396  1006.25
395.8  1048.125
395.6  1019.6875
395.4  1024.0625
395.2  1016.5625
395  1029.0625
394.8  1013.125
394.6  1028.4375
394.4  1041.25
394.2  1033.75
394  1013.125
393.8  1005.3125
393.6  1022.8125
393.4  1043.125
393.2  1007.5
393  1051.25
392.8  1009.0625
392.6  1022.8125
392.4  1016.5625
392.2  1016.875
392  1009.375
391.8  1000
391.6  1012.8125
391.4  1025
391.2  1013.125
391  1021.5625
390.8  1012.1875
390.6  1019.0625
390.4  1047.1875
390.2  997.5
390  1009.6875
389.8  1010
389.6  1020.625
389.4  1016.875
389.2  996.25
389  1024.375
388.8  1026.875
388.6  1030.3125
388.4  1016.25
388.2  1038.75
388  1026.5625
387.8  1007.1875
387.6  988.75
387.4  1012.5
387.2  1042.8125
387  1005.3125
386.8  1045.3125
386.6  1041.25
386.4  1023.75
386.2  1011.25
386  1038.4375
385.8  1015
385.6  1039.0625
385.4  1030
385.2  1044.6875
385  1033.75
384.8  1027.1875
384.6  1035.3125
384.4  1066.25
384.2  1050
384  1065.3125
383.8  1048.125
383.6  1041.5625
383.4  1076.5625
383.2  1068.125
383  1084.375
382.8  1079.375
382.6  1095
382.4  1062.5
382.2  1066.875
382  1036.5625
381.8  1035
381.6  1070.3125
381.4  1032.1875
381.2  1075.9375
381  1074.0625
380.8  1050
380.6  1041.5625
380.4  1006.25
380.2  1007.1875
380  986.25
379.8  1035.9375
379.6  1051.5625
379.4  1030.625
379.2  1004.375
379  1004.0625
378.8  1027.5
378.6  1040
378.4  1025.625
378.2  1032.8125
378  1040.625
377.8  1044.0625
377.6  1047.5
377.4  1054.375
377.2  1044.0625
377  1038.75
376.8  1053.75
376.6  1079.0625
376.4  1057.8125
376.2  1069.6875
376  1041.5625
375.8  1065.9375
375.6  1077.1875
375.4  1065.9375
375.2  1085
375  1050
374.8  1066.875
374.6  1107.1875
374.4  1066.875
374.2  1077.1875
374  1027.8125
373.8  1090.625
373.6  1038.4375
373.4  1035.625
373.2  1025.9375
373  1007.5
372.8  997.8125
372.6  977.5
372.4  999.375
372.2  955
372  987.5
371.8  978.75
371.6  978.75
371.4  967.8125
371.2  952.8125
371  994.375
370.8  937.5
370.6  995
370.4  1031.5625
370.2  997.5
370  937.8125
369.8  951.5625
369.6  951.875
369.4  959.375
369.2  965.9375
369  960.9375
368.8  944.0625
368.6  955.9375
368.4  964.375
368.2  965.9375
368  941.875
367.8  946.5625
367.6  950
367.4  972.5
367.2  945.625
367  949.6875
366.8  940.625
366.6  937.8125
366.4  960
366.2  909.375
366  953.4375
365.8  960.9375
365.6  963.4375
365.4  969.375
365.2  973.75
365  965.625
364.8  944.375
364.6  947.1875
364.4  963.75
364.2  944.375
364  954.0625
363.8  956.875
363.6  942.5
363.4  981.5625
363.2  965.625
363  949.6875
362.8  970.625
362.6  978.4375
362.4  971.25
362.2  983.75
362  991.5625
361.8  976.5625
361.6  967.1875
361.4  970
361.2  975.9375
361  959.375
360.8  949.6875
360.6  965.625
360.4  962.8125
360.2  969.375
360  972.1875
359.8  989.0625
359.6  952.8125
359.4  980.3125
359.2  988.125
359  950.9375
358.8  950.9375
358.6  988.4375
358.4  962.8125
358.2  958.125
358  939.6875
357.8  970.3125
357.6  960.625
357.4  929.0625
357.2  974.6875
357  957.1875
356.8  945
356.6  964.375
356.4  961.5625
356.2  964.375
356  932.5
355.8  970.625
355.6  953.4375
355.4  959.0625
355.2  961.5625
355  969.0625
354.8  970.3125
354.6  949.0625
354.4  947.8125
354.2  980.9375
354  952.1875
353.8  963.125
353.6  996.5625
353.4  925.625
353.2  963.125
353  939.0625
352.8  976.875
352.6  938.75
352.4  955.625
352.2  950.625
352  983.4375
351.8  979.375
351.6  963.4375
351.4  961.5625
351.2  969.375
351  976.5625
350.8  969.6875
350.6  962.8125
350.4  972.8125
350.2  967.1875
350  995
349.8  973.75
349.6  952.1875
349.4  971.5625
349.2  999.375
349  951.5625
348.8  962.8125
348.6  978.125
348.4  985.625
348.2  997.1875
348  970.625
347.8  997.8125
347.6  969.0625
347.4  975.3125
347.2  955.9375
347  952.8125
346.8  960.3125
346.6  1002.1875
346.4  960.625
346.2  981.25
346  962.8125
345.8  951.875
345.6  974.375
345.4  967.1875
345.2  975
345  967.5
344.8  957.8125
344.6  959.375
344.4  955
344.2  938.4375
344  961.5625
343.8  959.0625
343.6  969.0625
343.4  947.1875
343.2  945.9375
343  970.9375
342.8  979.375
342.6  940.625
342.4  974.0625
342.2  976.5625
342  957.5
341.8  945.625
341.6  936.25
341.4  967.1875
341.2  962.5
341  949.375
340.8  996.25
340.6  950
340.4  982.5
340.2  912.5
340  951.875
339.8  985.625
339.6  960.9375
339.4  970.625
339.2  943.4375
339  957.8125
338.8  951.25
338.6  970.3125
338.4  966.25
338.2  957.1875
338  965.625
337.8  965
337.6  974.375
337.4  978.75
337.2  974.375
337  944.0625
336.8  973.75
336.6  969.375
336.4  969.0625
336.2  948.125
336  998.125
335.8  969.6875
335.6  960.3125
335.4  929.6875
335.2  957.1875
335  954.375
334.8  951.25
334.6  993.4375
334.4  945
334.2  978.125
334  975
333.8  944.375
333.6  975
333.4  955.9375
333.2  970
333  986.5625
332.8  985.625
332.6  945.3125
332.4  975.625
332.2  971.875
332  964.0625
331.8  977.8125
331.6  946.25
331.4  954.375
331.2  967.5
331  981.875
330.8  997.1875
330.6  964.6875
330.4  972.1875
330.2  940.3125
330  942.8125
329.8  973.125
329.6  969.0625
329.4  967.5
329.2  976.875
329  981.875
328.8  971.5625
328.6  974.375
328.4  1011.25
328.2  942.8125
328  1003.75
327.8  993.4375
327.6  963.4375
327.4  988.75
327.2  960
327  978.4375
326.8  976.5625
326.6  977.5
326.4  958.75
326.2  997.8125
326  956.5625
325.8  967.1875
325.6  980
325.4  919.6875
325.2  957.5
325  990.9375
324.8  966.25
324.6  973.75
324.4  971.25
324.2  976.25
324  971.25
323.8  975.3125
323.6  980
323.4  964.6875
323.2  971.875
323  990
322.8  983.125
322.6  945.625
322.4  974.6875
322.2  986.25
322  970.3125
321.8  970
321.6  984.375
321.4  957.5
321.2  959.6875
321  1004.6875
320.8  946.875
320.6  976.25
320.4  1005.9375
320.2  975
320  994.6875
319.8  999.375
319.6  961.25
319.4  964.0625
319.2  998.75
319  992.1875
318.8  978.4375
318.6  955
318.4  997.5
318.2  994.375
318  976.875
317.8  980.625
317.6  971.5625
317.4  956.5625
317.2  997.5
317  983.125
316.8  977.8125
316.6  972.8125
316.4  978.75
316.2  1001.875
316  982.1875
315.8  992.1875
315.6  983.125
315.4  1003.4375
315.2  973.4375
315  997.1875
314.8  986.25
314.6  992.1875
314.4  971.5625
314.2  989.6875
314  981.5625
313.8  962.8125
313.6  983.4375
313.4  957.8125
313.2  997.8125
313  984.375
312.8  1000.9375
312.6  989.6875
312.4  981.875
312.2  1005.9375
312  988.75
311.8  972.8125
311.6  981.25
311.4  971.5625
311.2  1008.4375
311  963.125
310.8  979.0625
310.6  997.1875
310.4  970.3125
310.2  1005.625
310  1008.75
309.8  980.3125
309.6  996.5625
309.4  943.75
309.2  993.4375
309  966.25
308.8  995.625
308.6  967.5
308.4  994.0625
308.2  998.4375
308  1005
307.8  996.25
307.6  1014.375
307.4  1002.1875
307.2  1006.5625
307  1000.625
306.8  991.5625
306.6  978.125
306.4  1013.125
306.2  985.9375
306  1007.8125
305.8  954.375
305.6  979.0625
305.4  953.75
305.2  1004.375
305  1005.9375
304.8  996.5625
304.6  999.6875
304.4  982.1875
304.2  995.625
304  965.625
303.8  961.5625
303.6  967.5
303.4  994.375
303.2  968.4375
303  982.8125
302.8  971.875
302.6  1032.5
302.4  953.4375
302.2  969.6875
302  999.0625
301.8  1008.125
301.6  986.875
301.4  953.4375
301.2  1012.1875
301  983.125
300.8  990
300.6  949.0625
300.4  976.875
300.2  983.75
300  973.4375
299.8  966.25
299.6  992.5
299.4  984.375
299.2  1027.8125
299  975.3125
298.8  972.8125
298.6  1012.8125
298.4  953.4375
298.2  981.25
298  980
297.8  981.25
297.6  995.3125
297.4  977.1875
297.2  983.75
297  995.9375
296.8  970
296.6  978.75
296.4  967.8125
296.2  965
296  980.9375
295.8  976.25
295.6  979.0625
295.4  993.125
295.2  969.375
295  979.6875
294.8  1019.0625
294.6  965.625
294.4  1002.1875
294.2  977.5
294  977.8125
293.8  998.125
293.6  973.4375
293.4  1023.125
293.2  964.0625
293  984.375
292.8  970.9375
292.6  976.25
292.4  968.125
292.2  975.3125
292  1001.5625
291.8  999.6875
291.6  975
291.4  959.375
291.2  1004.375
291  1012.1875
290.8  1033.4375
290.6  992.8125
290.4  994.0625
290.2  1032.1875
290  1031.5625
289.8  1017.5
289.6  1013.4375
289.4  1044.375
289.2  1048.125
289  1064.375
288.8  1046.875
288.6  1038.75
288.4  1077.8125
288.2  1039.6875
288  1086.5625
287.8  1086.5625
287.6  1096.5625
287.4  1115.9375
287.2  1155.625
287  1222.8125
286.8  1184.6875
286.6  1236.875
286.4  1299.0625
286.2  1375.3125
286  1361.5625
285.8  1385.3125
285.6  1410.625
285.4  1398.75
285.2  1345.3125
285  1286.5625
284.8  1268.75
284.6  1209.6875
284.4  1168.125
284.2  1094.375
284  1054.375
283.8  987.1875
283.6  969.6875
283.4  998.75
283.2  965.3125
283  928.125
282.8  985
282.6  967.5
282.4  976.875
282.2  947.8125
282  940.625
281.8  935.625
281.6  948.125
281.4  982.8125
281.2  975
281  945.3125
280.8  940
280.6  971.25
280.4  952.1875
280.2  987.8125
280  955.9375
279.8  976.875
279.6  951.875
279.4  960.625
279.2  960.625
279  974.0625
278.8  951.5625
278.6  968.75
278.4  971.5625
278.2  980.625
278  985
277.8  989.0625
277.6  983.125
277.4  961.25
277.2  970.625
277  1004.6875
276.8  990.9375
276.6  1001.25
276.4  999.6875
276.2  979.0625
276  987.1875
275.8  1045.625
275.6  979.0625
275.4  973.75
275.2  973.4375
275  970.3125
274.8  1013.125
274.6  996.875
274.4  976.875
274.2  971.875
274  974.6875
273.8  993.4375
273.6  1010.625
273.4  983.4375
273.2  1020.3125
273  979.0625
272.8  1020.9375
272.6  998.4375
272.4  996.5625
272.2  1023.4375
272  1009.0625
271.8  1008.4375
271.6  1031.5625
271.4  1055.625
271.2  1044.6875
271  1087.1875
270.8  1071.875
270.6  1079.375
270.4  1079.6875
270.2  1094.6875
270  1065
269.8  1081.25
269.6  1058.75
269.4  1054.375
269.2  1042.5
269  994.6875
268.8  1006.25
268.6  997.1875
268.4  1013.4375
268.2  999.0625
268  995.9375
267.8  1000.9375
267.6  984.0625
267.4  954.0625
267.2  997.1875
267  967.1875
266.8  970.3125
266.6  963.125
266.4  966.25
266.2  956.25
266  989.375
265.8  959.0625
265.6  952.8125
265.4  964.6875
265.2  939.375
265  944.375
264.8  931.875
264.6  961.5625
264.4  933.4375
264.2  941.25
264  954.375
263.8  966.5625
263.6  920.625
263.4  966.5625
263.2  983.125
263  902.1875
262.8  931.875
262.6  964.0625
262.4  959.6875
262.2  966.5625
262  979.6875
261.8  997.8125
261.6  959.0625
261.4  975.625
261.2  976.25
261  955.9375
260.8  951.25
260.6  958.125
260.4  959.0625
260.2  958.125
260  997.1875
259.8  948.4375
259.6  964.375
259.4  961.5625
259.2  932.5
259  947.5
258.8  989.0625
258.6  952.8125
258.4  979.6875
258.2  970.625
258  946.5625
257.8  964.0625
257.6  978.75
257.4  974.0625
257.2  969.0625
257  937.8125
256.8  970.3125
256.6  941.875
256.4  967.8125
256.2  978.125
256  979.375
255.8  987.5
255.6  944.6875
255.4  998.125
255.2  990.625
255  952.5
254.8  985.625
254.6  964.0625
254.4  940.625
254.2  993.75
254  984.6875
253.8  992.5
253.6  989.375
253.4  970.9375
253.2  981.25
253  953.4375
252.8  960.3125
252.6  967.8125
252.4  975.3125
252.2  942.1875
252  974.6875
251.8  974.0625
251.6  932.1875
251.4  945.3125
251.2  944.375
251  975
250.8  967.8125
250.6  912.8125
250.4  962.5
250.2  930.3125
250  952.1875
249.8  941.25
249.6  930.3125
249.4  961.875
249.2  945.9375
249  956.25
248.8  975.9375
248.6  959.6875
248.4  953.125
248.2  986.5625
248  970.3125
247.8  887.1875
247.6  950.9375
247.4  936.25
247.2  969.0625
247  942.5
246.8  930
246.6  948.125
246.4  966.875
246.2  961.5625
246  975.3125
245.8  981.875
245.6  969.375
245.4  958.75
245.2  960.9375
245  942.1875
244.8  954.375
244.6  963.75
244.4  956.25
244.2  954.375
244  956.875
243.8  975
243.6  1015.9375
243.4  981.5625
243.2  965.3125
243  938.4375
242.8  961.5625
242.6  953.4375
242.4  954.375
242.2  961.875
242  962.5
241.8  1000
241.6  976.25
241.4  961.25
241.2  941.25
241  966.875
240.8  944.0625
240.6  957.5
240.4  945.625
240.2  938.75
240  959.0625
239.8  971.25
239.6  988.75
239.4  974.6875
239.2  977.8125
239  955.9375
238.8  957.5
238.6  951.5625
238.4  939.0625
238.2  925.625
238  965.625
237.8  921.875
237.6  938.125
237.4  948.125
237.2  964.0625
237  936.5625
236.8  953.125
236.6  897.1875
236.4  972.8125
236.2  925.3125
236  940.3125
235.8  961.25
235.6  952.8125
235.4  979.6875
235.2  975.3125
235  980
234.8  949.6875
234.6  935
234.4  980.9375
234.2  948.125
234  960.9375
233.8  978.125
233.6  989.375
233.4  943.75
233.2  981.25
233  983.125
232.8  975.625
232.6  960.9375
232.4  984.375
232.2  960.9375
232  994.0625
231.8  994.0625
231.6  975.3125
231.4  964.0625
231.2  987.8125
231  945.3125
230.8  928.4375
230.6  970.625
230.4  937.8125
230.2  978.75
230  976.25
229.8  970.625
229.6  956.25
229.4  984.0625
229.2  963.125
229  988.4375
228.8  955
228.6  927.8125
228.4  969.0625
228.2  954.375
228  956.875
227.8  933.4375
227.6  946.875
227.4  960.625
227.2  943.75
227  985
226.8  943.75
226.6  946.25
226.4  929.6875
226.2  964.6875
226  957.5
225.8  957.8125
225.6  944.6875
225.4  935
225.2  952.8125
225  942.8125
224.8  958.125
224.6  971.25
224.4  943.4375
224.2  946.875
224  947.8125
223.8  975.625
223.6  926.875
223.4  944.375
223.2  925.625
223  927.8125
222.8  928.75
222.6  980.625
222.4  950.625
222.2  925.625
222  978.125
221.8  964.6875
221.6  960.9375
221.4  983.4375
221.2  975.3125
221  939.375
220.8  942.5
220.6  930.9375
220.4  955
220.2  959.0625
220  959.375
219.8  988.125
219.6  943.125
219.4  946.5625
219.2  958.75
219  947.8125
218.8  969.375
218.6  930
218.4  940.9375
218.2  935
218  967.1875
217.8  993.4375
217.6  990.3125
217.4  976.875
217.2  983.75
217  943.125
216.8  934.375
216.6  955
216.4  970.625
216.2  947.5
216  956.875
215.8  954.375
215.6  969.0625
215.4  969.6875
215.2  975.3125
215  978.4375
214.8  960.625
214.6  949.6875
214.4  942.5
214.2  946.5625
214  933.4375
213.8  965.3125
213.6  952.8125
213.4  934.6875
213.2  949.375
213  942.5
212.8  985
212.6  969.375
212.4  950.3125
212.2  960.9375
212  981.875
211.8  927.8125
211.6  958.4375
211.4  837.5
211.2  964.375
211  921.5625
210.8  949.6875
210.6  938.75
210.4  950.625
210.2  967.8125
210  918.4375
209.8  969.375
209.6  930.9375
209.4  978.4375
209.2  970.3125
209  977.1875
208.8  991.25
208.6  955
208.4  966.25
208.2  956.5625
208  941.5625
207.8  971.25
207.6  973.4375
207.4  958.125
207.2  978.125
207  923.4375
206.8  924.375
206.6  949.0625
206.4  940.3125
206.2  939.0625
206  962.5
205.8  938.125
205.6  946.875
205.4  916.875
205.2  978.75
205  960.9375
204.8  924.6875
204.6  976.25
204.4  946.5625
204.2  968.75
204  954.375
203.8  954.0625
203.6  952.8125
203.4  964.0625
203.2  949.0625
203  948.125
202.8  951.875
202.6  987.5
202.4  960.9375
202.2  990.625
202  1023.125
201.8  1037.8125
201.6  1043.4375
201.4  1064.6875
201.2  1091.25
201  1094.6875
200.8  1119.0625
200.6  1142.5
200.4  1135
200.2  1152.8125
200  1114.0625
199.8  1152.1875
199.6  1162.8125
199.4  1196.875
199.2  1160.625
199  1158.4375
198.8  1124.375
198.6  1085.3125
198.4  1047.1875
198.2  987.8125
198  970.3125
197.8  995.3125
197.6  987.1875
197.4  978.4375
197.2  928.75
197  955.625
196.8  941.25
196.6  934.0625
196.4  932.5
196.2  933.4375
196  925.625
195.8  933.4375
195.6  940.625
195.4  944.0625
195.2  926.25
195  991.875
194.8  939.0625
194.6  965.3125
194.4  967.1875
194.2  980
194  966.25
193.8  920.3125
193.6  941.25
193.4  948.125
193.2  966.5625
193  963.4375
192.8  940
192.6  905.9375
192.4  965.3125
192.2  955.9375
192  986.5625
191.8  986.25
191.6  966.875
191.4  946.5625
191.2  967.5
191  975
190.8  982.5
190.6  976.875
190.4  943.4375
190.2  964.0625
190  984.6875
189.8  987.1875
189.6  939.375
189.4  960.625
189.2  955
189  975
188.8  967.5
188.6  983.75
188.4  1015.625
188.2  936.5625
188  926.5625
187.8  964.6875
187.6  950.3125
187.4  917.8125
187.2  914.375
187  942.5
186.8  940
186.6  957.5
186.4  949.0625
186.2  940.9375
186  955.9375
185.8  987.5
185.6  952.8125
185.4  964.0625
185.2  937.5
185  949.375
184.8  970
184.6  951.25
184.4  934.375
184.2  929.6875
184  940
183.8  913.75
183.6  933.75
183.4  922.5
183.2  928.125
183  940.9375
182.8  969.375
182.6  934.6875
182.4  980.625
182.2  920
182  926.25
181.8  955.9375
181.6  961.25
181.4  980.625
181.2  996.875
181  970
180.8  1015.625
180.6  985.9375
180.4  1028.125
180.2  1083.75
180  1057.1875
179.8  1007.8125
179.6  1040.3125
179.4  1063.75
179.2  1039.6875
179  1013.125
178.8  986.875
178.6  1005.9375
178.4  971.25
178.2  994.6875
178  978.75
177.8  958.125
177.6  934.0625
177.4  936.5625
177.2  955
177  930
176.8  927.5
176.6  921.875
176.4  937.8125
176.2  940.3125
176  944.375
175.8  962.1875
175.6  933.125
175.4  956.875
175.2  948.75
175  924.375
174.8  926.25
174.6  937.8125
174.4  948.75
174.2  929.0625
174  915.3125
173.8  938.75
173.6  960.9375
173.4  917.1875
173.2  909.0625
173  930.3125
172.8  943.4375
172.6  932.1875
172.4  917.5
172.2  936.875
172  925.625
171.8  919.6875
171.6  941.5625
171.4  936.5625
171.2  949.0625
171  934.375
170.8  915.3125
170.6  948.125
170.4  977.1875
170.2  938.75
170  947.5
169.8  950.9375
169.6  965.3125
169.4  931.5625
169.2  922.8125
169  954.6875
168.8  920.9375
168.6  927.1875
168.4  937.1875
168.2  959.6875
168  947.5
167.8  921.25
167.6  940
167.4  936.25
167.2  915.3125
167  935.3125
166.8  949.6875
166.6  941.5625
166.4  938.4375
166.2  943.4375
166  951.875
165.8  919.0625
165.6  977.5
165.4  948.4375
165.2  929.6875
165  945.625
164.8  941.5625
164.6  956.875
164.4  946.25
164.2  940.3125
164  957.5
163.8  961.875
163.6  932.1875
163.4  933.75
163.2  929.375
163  956.25
162.8  933.125
162.6  930.3125
162.4  968.125
162.2  897.5
162  932.8125
161.8  943.75
161.6  948.75
161.4  943.75
161.2  952.1875
161  945.9375
160.8  935.9375
160.6  921.875
160.4  944.0625
160.2  944.0625
160  955.9375
159.8  914.0625
159.6  927.8125
159.4  930.9375
159.2  950
159  940.9375
158.8  936.5625
158.6  952.8125
158.4  944.6875
158.2  969.6875
158  921.875
157.8  950.9375
157.6  945.9375
157.4  969.6875
157.2  944.375
157  965.9375
156.8  954.375
156.6  929.6875
156.4  976.875
156.2  985.9375
156  973.75
155.8  960.9375
155.6  919.0625
155.4  950.625
155.2  970.625
155  949.6875
154.8  942.1875
154.6  943.75
154.4  955.3125
154.2  990.9375
154  986.5625
153.8  971.25
153.6  951.875
153.4  967.1875
153.2  938.125
153  965
152.8  930.9375
152.6  974.375
152.4  985.625
152.2  952.8125
152  920.9375
151.8  945.625
151.6  912.5
151.4  953.4375
151.2  933.75
151  932.1875
150.8  982.8125
150.6  908.4375
150.4  957.1875
150.2  923.125
150  937.1875
149.8  907.8125
149.6  910
149.4  930.3125
149.2  943.75
149  960.625
148.8  934.0625
148.6  925
148.4  933.75
148.2  953.75
148  954.0625
147.8  936.25
147.6  948.125
147.4  917.5
147.2  953.125
147  945.3125
146.8  945
146.6  935
146.4  920.3125
146.2  940
146  943.125
145.8  968.125
145.6  947.5
145.4  919.375
145.2  941.25
145  960.9375
144.8  913.75
144.6  952.8125
144.4  939.375
144.2  967.8125
144  994.6875
143.8  966.875
143.6  947.8125
143.4  931.5625
143.2  955.9375
143  981.5625
142.8  943.75
142.6  968.4375
142.4  932.8125
142.2  966.5625
142  947.8125
141.8  930
141.6  962.1875
141.4  950
141.2  946.875
141  964.0625
140.8  985.3125
140.6  950
140.4  985.9375
140.2  984.0625
140  972.1875
139.8  965
139.6  969.0625
139.4  954.0625
139.2  931.875
139  971.25
138.8  958.125
138.6  946.875
138.4  961.25
138.2  952.8125
138  989.375
137.8  915.625
137.6  960.9375
137.4  969.0625
137.2  957.1875
137  940.9375
136.8  965.625
136.6  939.0625
136.4  954.6875
136.2  937.1875
136  962.1875
135.8  931.5625
135.6  949.6875
135.4  893.125
135.2  918.4375
135  967.1875
134.8  941.5625
134.6  946.875
134.4  944.375
134.2  959.0625
134  944.6875
133.8  911.875
133.6  956.25
133.4  969.6875
133.2  959.6875
133  962.5
132.8  920.625
132.6  941.875
132.4  928.75
132.2  943.125
132  934.6875
131.8  949.375
131.6  982.5
131.4  963.75
131.2  963.75
131  931.25
130.8  958.4375
130.6  979.0625
130.4  931.5625
130.2  931.5625
130  974.6875
129.8  970
129.6  960.9375
129.4  965.3125
129.2  971.25
129  945.3125
128.8  962.8125
128.6  965.3125
128.4  960.625
128.2  992.5
128  972.8125
127.8  989.375
127.6  990
127.4  1007.8125
127.2  1014.0625
127  1007.1875
126.8  1004.0625
126.6  998.75
126.4  1010
126.2  1047.1875
126  1038.125
125.8  1039.6875
125.6  1045
125.4  1049.0625
125.2  1051.25
125  1059.375
124.8  1048.125
124.6  1047.5
124.4  1092.8125
124.2  1067.5
124  1063.125
123.8  1047.1875
123.6  1068.125
123.4  1060.9375
123.2  1037.5
123  1025.3125
122.8  1044.6875
122.6  1008.125
122.4  1026.25
122.2  1025.625
122  997.1875
121.8  976.25
121.6  1005.625
121.4  1004.0625
121.2  989.375
121  974.375
120.8  960
120.6  982.5
120.4  946.25
120.2  955.9375
120  936.5625
119.8  952.1875
119.6  922.5
119.4  926.875
119.2  957.5
119  933.75
118.8  926.25
118.6  955.625
118.4  927.5
118.2  931.25
118  937.8125
117.8  940
117.6  934.0625
117.4  945.625
117.2  944.0625
117  941.5625
116.8  939.0625
116.6  931.5625
116.4  977.1875
116.2  943.4375
116  967.8125
115.8  937.1875
115.6  922.5
115.4  956.5625
115.2  942.1875
115  917.1875
114.8  958.75
114.6  935.625
114.4  972.8125
114.2  937.5
114  916.25
113.8  948.4375
113.6  930.9375
113.4  944.375
113.2  954.375
113  914.375
112.8  916.25
112.6  956.5625
112.4  904.0625
112.2  946.5625
112  931.5625
111.8  906.25
111.6  915.9375
111.4  930.3125
111.2  917.1875
111  911.5625
110.8  893.125
110.6  933.4375
110.4  946.5625
110.2  922.1875
110  949.6875
109.8  932.8125
109.6  961.875
109.4  917.8125
109.2  914.375
109  946.875
108.8  950
108.6  928.125
108.4  941.5625
108.2  935.3125
108  887.5
107.8  956.25
107.6  943.75
107.4  941.5625
107.2  965.9375
107  939.0625
106.8  935.9375
106.6  915.9375
106.4  920.9375
106.2  929.375
106  938.4375
105.8  943.125
105.6  926.875
105.4  937.5
105.2  942.5
105  938.125
104.8  962.5
104.6  982.5
104.4  947.8125
104.2  948.4375
104  933.75
103.8  978.75
103.6  989.0625
103.4  982.8125
103.2  958.4375
103  987.5
102.8  969.6875
102.6  970.3125
102.4  949.0625
102.2  951.25
102  950.625
101.8  935.3125
101.6  985.9375
101.4  950
101.2  949.6875
101  932.1875
100.8  956.875
100.6  942.8125
100.4  956.875
100.2  980
100  993.75
99.8  951.25
99.6  955.625
99.4  923.75
99.2  931.25
99  1104.375
98.8  941.25
98.6  958.4375
98.4  951.5625
98.2  974.375
98  976.25
97.8  921.5625
97.6  957.8125
97.4  946.25
97.2  956.5625
97  942.1875
96.8  944.375
96.6  961.875
96.4  976.25
96.2  970
96  945.3125
95.8  1003.4375
95.6  956.25
95.4  1009.6875
95.2  1005
95  1041.5625
94.8  1067.5
94.6  1095.625
94.4  1082.1875
94.2  1142.5
94  1147.1875
93.8  1125.9375
93.6  1150.9375
93.4  1146.875
93.2  1149.0625
93  1118.75
92.8  1089.6875
92.6  1099.0625
92.4  1081.5625
92.2  1120.9375
92  1120
91.8  1199.375
91.6  1196.5625
91.4  1242.8125
91.2  1243.4375
91  1224.0625
90.8  1232.1875
90.6  1160
90.4  1156.25
90.2  1100
90  1077.5
89.8  1042.8125
89.6  1027.8125
89.4  1026.5625
89.2  1010.625
89  958.125
88.8  985.625
88.6  1010.625
88.4  996.5625
88.2  985.9375
88  967.5
87.8  971.875
87.6  991.25
87.4  989.6875
87.2  992.8125
87  1026.25
86.8  979.6875
86.6  985.625
86.4  988.4375
86.2  967.1875
86  968.75
85.8  979.375
85.6  972.1875
85.4  1000
85.2  1046.25
85  1014.6875
84.8  995.625
84.6  995.625
84.4  1008.125
84.2  1036.875
84  1004.6875
83.8  1020.9375
83.6  964.375
83.4  1030
83.2  977.5
83  1006.875
82.8  995.625
82.6  1019.0625
82.4  1012.8125
82.2  1041.875
82  984.6875
81.8  1025.3125
81.6  1015.3125
81.4  1036.25
81.2  1056.5625
81  1035.3125
80.8  1044.0625
80.6  1024.6875
80.4  999.6875
80.2  1030.3125
80  1049.375
79.8  1020
79.6  1021.25
79.4  994.0625
79.2  1033.125
79  1011.25
78.8  1000.625
78.6  991.5625
78.4  1026.25
78.2  970
78  1013.4375
77.8  994.375
77.6  960
77.4  936.5625
77.2  955.9375
77  935.625
76.8  907.1875
76.6  930.3125
76.4  909.0625
76.2  954.6875
76  886.5625
75.8  898.4375
75.6  897.8125
75.4  927.8125
75.2  878.125
75  863.125
74.8  894.6875
74.6  894.375
74.4  853.125
74.2  873.4375
74  890.625
73.8  842.8125
73.6  873.125
73.4  826.25
73.2  850
73  872.8125
72.8  819.0625
72.6  852.1875
72.4  803.75
72.2  848.125
72  835
71.8  825
71.6  800.9375
71.4  788.125
71.2  797.8125
71  796.5625
70.8  804.0625
70.6  815.9375
70.4  809.6875
70.2  778.125
70  774.0625
69.8  803.125
69.6  745.9375
69.4  762.1875
69.2  753.75
69  758.125
68.8  760
68.6  761.5625
68.4  750
68.2  744.0625
68  723.4375
67.8  741.5625
67.6  735.9375
67.4  707.5
67.2  770.3125
67  746.25
66.8  710.9375
66.6  718.4375
66.4  735.9375
66.2  754.6875
66  729.0625
65.8  746.875
65.6  717.8125
65.4  730
65.2  743.4375
65  742.8125
64.8  702.8125
64.6  705.9375
64.4  726.5625
64.2  735.3125
64  701.25
63.8  708.75
63.6  703.75
63.4  694.375
63.2  685.3125
63  688.125
62.8  687.8125
62.6  697.8125
62.4  707.5
62.2  719.375
62  721.5625
61.8  698.75
61.6  723.75
61.4  696.5625
61.2  720
61  678.125
60.8  697.5
60.6  678.4375
60.4  705.625
60.2  725.625
60  691.5625
59.8  714.375
59.6  706.25
59.4  681.875
59.2  695
59  683.75
58.8  671.875
58.6  701.875
58.4  699.6875
58.2  674.0625
58  695.625
57.8  703.125
57.6  695.3125
57.4  695.3125
57.2  688.4375
57  684.6875
56.8  697.5
56.6  715.3125
56.4  674.0625
56.2  720.3125
56  688.4375
55.8  699.0625
55.6  687.1875
55.4  660.625
55.2  656.25
55  688.4375
54.8  703.4375
54.6  688.125
54.4  674.0625
54.2  717.5
54  703.125
53.8  708.4375
53.6  699.0625
53.4  689.0625
53.2  698.4375
53  712.8125
52.8  690.9375
52.6  679.0625
52.4  675.9375
52.2  693.4375
52  701.25
51.8  685.625
51.6  698.125
51.4  709.375
51.2  683.4375
51  700.3125
50.8  726.25
50.6  705.9375
50.4  692.8125
50.2  698.125
50  721.875
49.8  700.9375
49.6  679.375
49.4  714.0625
49.2  718.4375
49  720.3125
48.8  716.25
48.6  718.4375
48.4  676.875
48.2  706.5625
48  718.75
47.8  698.75
47.6  700
47.4  735.9375
47.2  701.25
47  732.8125
46.8  694.6875
46.6  698.125
46.4  719.6875
46.2  740.9375
46  708.125
45.8  713.75
45.6  697.1875
45.4  693.75
45.2  737.8125
45  722.8125
44.8  726.5625
44.6  728.125
44.4  727.5
44.2  725.9375
44  690.625
43.8  751.875
43.6  738.4375
43.4  727.1875
43.2  730
43  736.25
42.8  707.5
42.6  729.375
42.4  718.75
42.2  746.25
42  750
41.8  720.625
41.6  691.5625
41.4  722.1875
41.2  725
41  734.0625
40.8  749.6875
40.6  729.0625
40.4  702.8125
40.2  710.3125
40  738.4375
39.8  739.0625
39.6  752.8125
39.4  731.875
39.2  709.0625
39  705
38.8  735.9375
38.6  731.25
38.4  709.6875
38.2  694.0625
38  728.125
37.8  757.1875
37.6  703.4375
37.4  719.375
37.2  739.375
37  734.0625
36.8  701.875
36.6  734.375
36.4  703.4375
36.2  693.4375
36  716.5625
35.8  713.125
35.6  711.5625
35.4  703.4375
35.2  710.625
35  693.125
34.8  710.9375
34.6  715.9375
34.4  670.9375
34.2  695.9375
34  691.5625
33.8  671.875
33.6  676.25
33.4  685
33.2  667.5
33  705
32.8  681.25
32.6  685.9375
32.4  685.625
32.2  690.3125
32  675.9375
31.8  676.25
31.6  685
31.4  679.6875
31.2  668.75
31  677.1875
30.8  662.5
30.6  665.625
30.4  705
30.2  697.5
30  679.375
29.8  719.0625
29.6  716.25
29.4  723.4375
29.2  745.3125
29  723.125
28.8  714.0625
28.6  759.6875
28.4  815.3125
28.2  790
28  782.1875
27.8  807.8125
27.6  813.4375
27.4  825
27.2  821.5625
27  808.4375
26.8  821.5625
26.6  793.4375
26.4  764.375
26.2  757.8125
26  723.75
25.8  731.875
25.6  688.4375
25.4  700.3125
25.2  678.75
25  657.8125
24.8  673.4375
24.6  673.4375
24.4  655
24.2  633.75
24  680.625
23.8  683.4375
23.6  670.625
23.4  672.1875
23.2  696.875
23  700.625
22.8  711.5625
22.6  697.5
22.4  694.375
22.2  708.125
22  747.5
21.8  759.6875
21.6  806.875
21.4  854.0625
21.2  904.375
21  978.75
20.8  1040.3125
20.6  1164.0625
20.4  1302.1875
20.2  1418.125
20  1564.0625
19.8  1682.5
19.6  1808.4375
19.4  1895.3125
19.2  2015.9375
19  2075
18.8  2113.4375
18.6  2051.875
18.4  1924.0625
18.2  1797.1875
18  1681.25
17.8  1496.5625
17.6  1286.25
17.4  1173.75
17.2  991.5625
17  876.25
16.8  793.125
16.6  716.5625
16.4  671.875
16.2  625
16  581.875
15.8  588.4375
15.6  576.5625
15.4  585.9375
15.2  563.4375
15  540.9375
14.8  526.25
14.6  538.125
14.4  494.375
14.2  498.75
14  505.3125
13.8  529.0625
13.6  519.375
13.4  518.4375
13.2  508.125
13  491.25
12.8  508.125
12.6  464.0625
12.4  470.9375
12.2  477.8125
12  499.375
11.8  526.25
11.6  476.875
11.4  501.5625
11.2  496.875
11  521.5625
10.8  532.1875
10.6  547.5
10.4  531.25
10.2  564.6875
10  573.125
9.8  601.25
9.6  601.25
9.4  624.6875
9.2  633.125
9  642.5
8.8  609.0625
8.6  607.8125
8.4  612.1875
8.2  603.75
8  600.3125
7.8  609.6875
7.6  600.9375
7.4  607.5
7.2  578.4375
7  575
6.8  588.125
6.6  550.625
6.4  569.0625
6.2  590.9375
6  562.8125
5.8  538.125
5.6  555.625
5.4  561.5625
5.2  545
5  521.25
4.8  517.1875
4.6  496.875
4.4  465.9375
4.2  484.6875
4  457.8125
3.8  470
3.6  465.9375
3.4  450.9375
3.2  438.75
3  522.8125
2.8  450.625
2.6  436.25
2.4  416.875
2.2  422.5
2  436.875
1.8  434.375
1.6  451.25
1.4  408.75
1.2  410.625
1  430
0.8  416.5625
0.6  409.6875
0.4  423.125
0.2  439.6875
-2.2737368e-013  425.9375
-0.2  439.6875
-0.4  425.3125
-0.6  406.25
-0.8  422.1875
-1  433.4375
-1.2  441.5625
-1.4  408.125
-1.6  445
-1.8  442.1875
-2  436.875
-2.2  424.375
-2.4  447.5
-2.6  431.25
-2.8  447.8125
-3  420
-3.2  452.8125
-3.4  428.4375
-3.6  439.6875
-3.8  427.1875
-4  415.625

