# Created by:        SpecsLab Prodigy, Version 4.60.2-r85849
#
# XY-Serializer Export Settings:
#   Comment Prefix:           #
#   Output meta data:         yes
#   Energy Axis:              Binding Energy
#   Count Rate:               Counts per Second
#   Separate Scan Data:       no
#   Separate Channel Data:    no
#   External Channel Data:    yes
#   Transmission Function:    no
#   ErrorBar:                 no
#   Operation Results:        yes
#   Time Zone Format:         UTC
#
# Group:             Spectrum Group
#
# Region:            C1s
# Acquisition Date:  09/13/22 21:18:18 UTC
# Analysis Method:   XPS
# Analyzer:          Phoibos 100 R6
# Analyzer Lens:     LargeArea:1.5kV
# Analyzer Slit:     1:0.2x20\B:open
# Scan Mode:         FixedAnalyzerTransmission
# Curves/Scan:       1
# Values/Curve:      151
# Dwell Time:        0.8
# Excitation Energy: 1486.61
# Binding Energy:    295
# Pass Energy:       30
# Bias Voltage:      90
# Detector Voltage:  2600
# Eff. Workfunction: 4.309
# Source:            X-Ray Dummy
# Comment:
#
# Cycle: 0
# Number of Scans: 40
#
# Cycle: 0, Curve: 0
# Acquisition Date: 09/13/22 21:18:18 UTC
#
# ColumnLabels: energy counts/s
#
295  930.875
294.9  928.5
294.8  924.15625
294.7  926.34375
294.6  947.65625
294.5  915.09375
294.4  942.5625
294.3  932.5625
294.2  924.875
294.1  918.625
294  916.125
293.9  914.09375
293.8  925.4375
293.7  914.15625
293.6  931.96875
293.5  929.375
293.4  929.53125
293.3  931.125
293.2  921.625
293.1  922.5
293  919.25
292.9  919.1875
292.8  935.1875
292.7  927.5625
292.6  930.0625
292.5  928.375
292.4  923.09375
292.3  920.15625
292.2  927.65625
292.1  932.75
292  930.0625
291.9  917.5625
291.8  940.28125
291.7  928.59375
291.6  932.09375
291.5  932.71875
291.4  937.84375
291.3  932.3125
291.2  939.21875
291.1  943.1875
291  936.9375
290.9  950.65625
290.8  947
290.7  945.1875
290.6  956.75
290.5  957.09375
290.4  964.40625
290.3  948
290.2  969.59375
290.1  968.4375
290  978.5
289.9  976.46875
289.8  983.15625
289.7  969.34375
289.6  993.96875
289.5  996.40625
289.4  990.0625
289.3  1000.8125
289.2  1026.375
289.1  997.71875
289  1028.4688
288.9  1022.4688
288.8  1031
288.7  1033.0313
288.6  1042.4688
288.5  1051.2188
288.4  1060.9063
288.3  1075.1563
288.2  1080.2188
288.1  1102.0625
288  1103.7813
287.9  1123.4688
287.8  1143.9063
287.7  1154.8125
287.6  1158.3438
287.5  1179.9375
287.4  1190.6875
287.3  1221.875
287.2  1226.4375
287.1  1235.5313
287  1248.875
286.9  1265.875
286.8  1285.75
286.7  1286.9375
286.6  1310
286.5  1308.5313
286.4  1326.5313
286.3  1322.4063
286.2  1341.375
286.1  1334.625
286  1350.125
285.9  1334.4063
285.8  1329.7188
285.7  1320.375
285.6  1301.8125
285.5  1285.375
285.4  1262.3438
285.3  1249.375
285.2  1225.3438
285.1  1214.4375
285  1155.9375
284.9  1146.4063
284.8  1107.5625
284.7  1085.1875
284.6  1062.625
284.5  1039.3125
284.4  1016.1563
284.3  1002.9688
284.2  980
284.1  963.59375
284  956.28125
283.9  952.8125
283.8  938.28125
283.7  932.28125
283.6  928.59375
283.5  915.71875
283.4  913.0625
283.3  919.75
283.2  912.53125
283.1  937.40625
283  914.28125
282.9  909.5625
282.8  916.375
282.7  913.21875
282.6  905.78125
282.5  912.5
282.4  903.0625
282.3  895.875
282.2  903.59375
282.1  902.28125
282  900.0625
281.9  902.125
281.8  903.96875
281.7  894.25
281.6  895.34375
281.5  905.09375
281.4  902.3125
281.3  899.5
281.2  894.90625
281.1  890.59375
281  899.15625
280.9  894.75
280.8  891.125
280.7  886.90625
280.6  901.3125
280.5  899.78125
280.4  895.28125
280.3  899.34375
280.2  910.3125
280.1  894.28125
280  899.03125

# Region:            Ba3d
# Acquisition Date:  09/13/22 18:46:09 UTC
# Analysis Method:   XPS
# Analyzer:          Phoibos 100 R6
# Analyzer Lens:     LargeArea:1.5kV
# Analyzer Slit:     1:0.2x20\B:open
# Scan Mode:         FixedAnalyzerTransmission
# Curves/Scan:       1
# Values/Curve:      121
# Dwell Time:        0.8
# Excitation Energy: 1486.61
# Binding Energy:    789
# Pass Energy:       30
# Bias Voltage:      90
# Detector Voltage:  2600
# Eff. Workfunction: 4.309
# Source:            X-Ray Dummy
# Comment:
#
# Cycle: 0
# Number of Scans: 20
#
# Cycle: 0, Curve: 0
# Acquisition Date: 09/13/22 18:46:09 UTC
#
# ColumnLabels: energy counts/s
#
789  4597.3125
788.9  4610.625
788.8  4588.875
788.7  4626.4375
788.6  4603
788.5  4607
788.4  4595.4375
788.3  4604.125
788.2  4597.875
788.1  4596.1875
788  4572.9375
787.9  4600.625
787.8  4614.1875
787.7  4591.9375
787.6  4590.5625
787.5  4613.625
787.4  4574.25
787.3  4611.875
787.2  4584.375
787.1  4612.5
787  4618.625
786.9  4595.9375
786.8  4587.125
786.7  4618.125
786.6  4624.5625
786.5  4592.0625
786.4  4601
786.3  4591.0625
786.2  4611.625
786.1  4598.125
786  4609.75
785.9  4609.4375
785.8  4595.9375
785.7  4594.5625
785.6  4614.6875
785.5  4594.5625
785.4  4585.4375
785.3  4607.3125
785.2  4609.75
785.1  4565.625
785  4613.125
784.9  4613.875
784.8  4585.625
784.7  4595.5
784.6  4588.5625
784.5  4597.625
784.4  4581.625
784.3  4616.9375
784.2  4620.875
784.1  4617.0625
784  4617.4375
783.9  4609.9375
783.8  4600.3125
783.7  4666.6875
783.6  4657.25
783.5  4636.9375
783.4  4636.75
783.3  4621.75
783.2  4654.4375
783.1  4643.375
783  4703.5625
782.9  4675.875
782.8  4688.6875
782.7  4733.5625
782.6  4739.5
782.5  4732.75
782.4  4710.3125
782.3  4816.4375
782.2  4806.9375
782.1  4815.9375
782  4831.75
781.9  4849
781.8  4853.875
781.7  4873.4375
781.6  4888.5
781.5  4880.5625
781.4  4887.875
781.3  4893.375
781.2  4890.9375
781.1  4889.0625
781  4848.625
780.9  4875.625
780.8  4849.4375
780.7  4851.25
780.6  4811.75
780.5  4796.75
780.4  4825.6875
780.3  4785.375
780.2  4720.9375
780.1  4724.4375
780  4726.5
779.9  4679.75
779.8  4655.6875
779.7  4664.5
779.6  4649.1875
779.5  4628.1875
779.4  4616.3125
779.3  4629.5625
779.2  4574.125
779.1  4613.0625
779  4594.5
778.9  4582.6875
778.8  4591.6875
778.7  4559.75
778.6  4600.5
778.5  4573.8125
778.4  4599.4375
778.3  4584.4375
778.2  4571.5625
778.1  4585
778  4582.25
777.9  4566.25
777.8  4529.5
777.7  4555
777.6  4599.9375
777.5  4570.625
777.4  4549.4375
777.3  4589.375
777.2  4548.0625
777.1  4564.5625
777  4563.5625

# Region:            Cl2p
# Acquisition Date:  09/13/22 18:47:40 UTC
# Analysis Method:   XPS
# Analyzer:          Phoibos 100 R6
# Analyzer Lens:     LargeArea:1.5kV
# Analyzer Slit:     1:0.2x20\B:open
# Scan Mode:         FixedAnalyzerTransmission
# Curves/Scan:       1
# Values/Curve:      111
# Dwell Time:        0.8
# Excitation Energy: 1486.61
# Binding Energy:    207
# Pass Energy:       30
# Bias Voltage:      90
# Detector Voltage:  2600
# Eff. Workfunction: 4.309
# Source:            X-Ray Dummy
# Comment:
#
# Cycle: 0
# Number of Scans: 20
#
# Cycle: 0, Curve: 0
# Acquisition Date: 09/13/22 18:47:40 UTC
#
# ColumnLabels: energy counts/s
#
207  853.6875
206.9  841.5
206.8  870.0625
206.7  872.9375
206.6  866.5
206.5  863.4375
206.4  873
206.3  870.3125
206.2  864.0625
206.1  873.4375
206  866
205.9  857.25
205.8  862.125
205.7  862.5625
205.6  854.8125
205.5  870.125
205.4  857.5625
205.3  867.9375
205.2  869.1875
205.1  866.6875
205  870.8125
204.9  854.6875
204.8  862.375
204.7  860.25
204.6  859.1875
204.5  857.625
204.4  850.875
204.3  865.75
204.2  860.3125
204.1  858.625
204  872.5625
203.9  856.6875
203.8  854.875
203.7  872.9375
203.6  859.875
203.5  847.625
203.4  866.5
203.3  857.4375
203.2  855.875
203.1  867.9375
203  875.25
202.9  858.875
202.8  874.25
202.7  865.5
202.6  872.75
202.5  860.3125
202.4  859.4375
202.3  881.4375
202.2  859.75
202.1  906.5625
202  867.5625
201.9  870.1875
201.8  874.6875
201.7  876.625
201.6  879.5625
201.5  876.1875
201.4  897.5
201.3  883.375
201.2  869.75
201.1  893.625
201  893.875
200.9  900.6875
200.8  891.8125
200.7  892.1875
200.6  891.6875
200.5  904.125
200.4  895.3125
200.3  906.8125
200.2  905.875
200.1  891.9375
200  910.5625
199.9  948.75
199.8  907.5625
199.7  900.8125
199.6  907.3125
199.5  909.75
199.4  909.9375
199.3  906.6875
199.2  911.3125
199.1  889
199  911.9375
198.9  922.9375
198.8  901.5
198.7  903.375
198.6  894.125
198.5  903.9375
198.4  890.8125
198.3  895.375
198.2  884.4375
198.1  891.25
198  879.3125
197.9  879.6875
197.8  894.6875
197.7  866.9375
197.6  869.0625
197.5  888.375
197.4  871.5
197.3  869.875
197.2  860.5
197.1  867.3125
197  871.6875
196.9  873.125
196.8  870.1875
196.7  869.4375
196.6  874.5625
196.5  856.6875
196.4  845.1875
196.3  868
196.2  856.5
196.1  857.1875
196  857.25

# Region:            In3d
# Acquisition Date:  09/13/22 16:04:15 UTC
# Analysis Method:   XPS
# Analyzer:          Phoibos 100 R6
# Analyzer Lens:     LargeArea:1.5kV
# Analyzer Slit:     1:0.2x20\B:open
# Scan Mode:         FixedAnalyzerTransmission
# Curves/Scan:       1
# Values/Curve:      231
# Dwell Time:        0.8
# Excitation Energy: 1486.61
# Binding Energy:    460
# Pass Energy:       30
# Bias Voltage:      90
# Detector Voltage:  2600
# Eff. Workfunction: 4.309
# Source:            X-Ray Dummy
# Comment:
#
# Cycle: 0
# Number of Scans: 5
#
# Cycle: 0, Curve: 0
# Acquisition Date: 09/13/22 16:04:15 UTC
#
# ColumnLabels: energy counts/s
#
460  2511.75
459.9  2489.25
459.8  2482
459.7  2462
459.6  2470.25
459.5  2458
459.4  2491.5
459.3  2438.25
459.2  2388.75
459.1  2383.75
459  2411
458.9  2402.75
458.8  2386
458.7  2380.5
458.6  2398.25
458.5  2359.75
458.4  2385.75
458.3  2356.25
458.2  2351
458.1  2343.25
458  2353
457.9  2382
457.8  2326.75
457.7  2335
457.6  2328.25
457.5  2372.75
457.4  2318
457.3  2361.25
457.2  2333.25
457.1  2382.75
457  2315.75
456.9  2367.75
456.8  2361.75
456.7  2360.5
456.6  2444
456.5  2419.5
456.4  2419
456.3  2432.25
456.2  2407.75
456.1  2533.25
456  2576.75
455.9  2570.25
455.8  2634.25
455.7  2694.75
455.6  2724.75
455.5  2819.5
455.4  2891
455.3  3002.5
455.2  3110.75
455.1  3189.5
455  3364.5
454.9  3484.75
454.8  3625
454.7  3848.75
454.6  3983.25
454.5  4207.75
454.4  4482.5
454.3  4746.5
454.2  5017.5
454.1  5234.75
454  5495.5
453.9  5825
453.8  6147
453.7  6455.5
453.6  6649
453.5  7001
453.4  7219.25
453.3  7451.25
453.2  7618.5
453.1  7735.5
453  7853.75
452.9  7849.75
452.8  7893
452.7  7759.75
452.6  7639.25
452.5  7388.25
452.4  7096.5
452.3  6724.75
452.2  6394.25
452.1  5931.25
452  5562.75
451.9  5069.25
451.8  4630
451.7  4249.25
451.6  3930.75
451.5  3501.25
451.4  3259.75
451.3  3008.25
451.2  2777
451.1  2584.75
451  2456.5
450.9  2352.5
450.8  2191
450.7  2139.25
450.6  2110.5
450.5  2114
450.4  1992
450.3  1942
450.2  1941
450.1  1930
450  1918.75
449.9  1907.25
449.8  1867.5
449.7  1884.75
449.6  1890.5
449.5  1901.5
449.4  1911.5
449.3  1872
449.2  1909.25
449.1  1951.75
449  1926
448.9  1965.75
448.8  1997.25
448.7  2062.75
448.6  2125.5
448.5  2149
448.4  2210.25
448.3  2290
448.2  2387.25
448.1  2424.75
448  2624
447.9  2704.75
447.8  2806.25
447.7  2968.75
447.6  3169.25
447.5  3339.75
447.4  3617
447.3  3778
447.2  4058.25
447.1  4318.75
447  4687.25
446.9  5028.25
446.8  5404
446.7  5683.25
446.6  6072.75
446.5  6560.25
446.4  6904.5
446.3  7348
446.2  7827.5
446.1  8231.75
446  8642.25
445.9  9011.25
445.8  9361
445.7  9656.75
445.6  9920.5
445.5  10022
445.4  10190
445.3  10227.5
445.2  10151.5
445.1  9955.5
445  9614
444.9  9375.75
444.8  8918.5
444.7  8358.5
444.6  7886.25
444.5  7304.5
444.4  6637.5
444.3  6062.25
444.2  5474.5
444.1  4916
444  4505.25
443.9  4032.75
443.8  3697
443.7  3317.75
443.6  3035
443.5  2881.5
443.4  2700.5
443.3  2548.5
443.2  2442.25
443.1  2341.5
443  2279
442.9  2263.25
442.8  2181.25
442.7  2085.75
442.6  2042.25
442.5  2029.25
442.4  1941
442.3  1925.75
442.2  1869
442.1  1783.25
442  1789.75
441.9  1753.25
441.8  1720.5
441.7  1719.25
441.6  1679.5
441.5  1639.75
441.4  1615.75
441.3  1589.25
441.2  1591.5
441.1  1585
441  1590.75
440.9  1555
440.8  1531.5
440.7  1556.75
440.6  1497
440.5  1459.25
440.4  1483.75
440.3  1463
440.2  1409
440.1  1420.5
440  1423.25
439.9  1392.5
439.8  1379
439.7  1389.5
439.6  1337.75
439.5  1301.25
439.4  1333.25
439.3  1316
439.2  1305
439.1  1278.75
439  1285.5
438.9  1273.5
438.8  1283.5
438.7  1252
438.6  1238.75
438.5  1242.5
438.4  1275.25
438.3  1266
438.2  1254.5
438.1  1271.5
438  1273
437.9  1276.25
437.8  1273.75
437.7  1307.5
437.6  1327
437.5  1333.75
437.4  1370.75
437.3  1345.5
437.2  1374.5
437.1  1413
437  1442.75

# Region:            Sn3d
# Acquisition Date:  09/13/22 16:07:22 UTC
# Analysis Method:   XPS
# Analyzer:          Phoibos 100 R6
# Analyzer Lens:     LargeArea:1.5kV
# Analyzer Slit:     1:0.2x20\B:open
# Scan Mode:         FixedAnalyzerTransmission
# Curves/Scan:       1
# Values/Curve:      231
# Dwell Time:        0.8
# Excitation Energy: 1486.61
# Binding Energy:    503
# Pass Energy:       30
# Bias Voltage:      90
# Detector Voltage:  2600
# Eff. Workfunction: 4.309
# Source:            X-Ray Dummy
# Comment:
#
# Cycle: 0
# Number of Scans: 5
#
# Cycle: 0, Curve: 0
# Acquisition Date: 09/13/22 16:07:22 UTC
#
# ColumnLabels: energy counts/s
#
503  3009.25
502.9  3023.75
502.8  3017.5
502.7  3007.25
502.6  3019
502.5  3008.75
502.4  3041.25
502.3  3062.5
502.2  3015
502.1  3062.75
502  3063.25
501.9  3052.75
501.8  2992.75
501.7  3019.75
501.6  3008
501.5  2989
501.4  2955
501.3  3008.75
501.2  2989.75
501.1  3006.5
501  2969
500.9  3019
500.8  3019
500.7  3008.75
500.6  2977.25
500.5  3007.75
500.4  3013.25
500.3  3009.5
500.2  3015.75
500.1  3021.75
500  3029.5
499.9  2956.75
499.8  3019.5
499.7  2969.75
499.6  3018
499.5  3054.75
499.4  3032.25
499.3  2979.5
499.2  3037.25
499.1  3058.75
499  2991
498.9  3039.75
498.8  3046.25
498.7  3099.75
498.6  3074.5
498.5  3075
498.4  3110.25
498.3  3117.75
498.2  3161.25
498.1  3070.25
498  3168.5
497.9  3171.25
497.8  3201
497.7  3241.5
497.6  3264
497.5  3280.25
497.4  3338.25
497.3  3355
497.2  3369.5
497.1  3425.75
497  3417.75
496.9  3482.5
496.8  3524
496.7  3561.75
496.6  3535
496.5  3552.75
496.4  3677.75
496.3  3673.25
496.2  3678.25
496.1  3733.5
496  3706.5
495.9  3714
495.8  3699.75
495.7  3789
495.6  3653.25
495.5  3661
495.4  3680.5
495.3  3594.25
495.2  3536
495.1  3528.75
495  3447.5
494.9  3437.25
494.8  3342.5
494.7  3318
494.6  3248
494.5  3262.25
494.4  3157.75
494.3  3080
494.2  3094
494.1  3032.25
494  2980
493.9  3011
493.8  2952.5
493.7  2949.25
493.6  3007.25
493.5  2921.75
493.4  2915.25
493.3  2931.75
493.2  2918.75
493.1  2944.25
493  2945
492.9  2897.5
492.8  2924.75
492.7  2920.5
492.6  2903
492.5  2877.75
492.4  2950.5
492.3  2883
492.2  2862.5
492.1  2896.5
492  2880
491.9  2905
491.8  2897
491.7  2865.25
491.6  2911.5
491.5  2960.5
491.4  2845.5
491.3  2900.25
491.2  2894.75
491.1  2927
491  2932.25
490.9  2933.5
490.8  2956.5
490.7  2946.75
490.6  2921.75
490.5  2901
490.4  2952.5
490.3  2989
490.2  2991.25
490.1  3018.5
490  2989.25
489.9  2991.5
489.8  3018.25
489.7  3019.25
489.6  3085
489.5  3077.25
489.4  3129.25
489.3  3174.75
489.2  3177.5
489.1  3238
489  3268.5
488.9  3308.75
488.8  3356
488.7  3419.75
488.6  3497.75
488.5  3608.75
488.4  3585.25
488.3  3564.75
488.2  3635.25
488.1  3676
488  3708.5
487.9  3768.75
487.8  3856.75
487.7  3887.75
487.6  3859.5
487.5  3913
487.4  3966.5
487.3  3954
487.2  3898
487.1  3901.5
487  3954
486.9  3858.25
486.8  3749.25
486.7  3697.25
486.6  3667.75
486.5  3624.25
486.4  3589.5
486.3  3460.75
486.2  3413.25
486.1  3281.5
486  3273.25
485.9  3200.5
485.8  3134.75
485.7  3084
485.6  3150.5
485.5  3054
485.4  3018
485.3  3017.75
485.2  2960.5
485.1  2950.75
485  2930.25
484.9  2965.75
484.8  2889.75
484.7  2953
484.6  2890.5
484.5  2906.25
484.4  2872
484.3  2888.75
484.2  2875.75
484.1  2890
484  2944.5
483.9  2891.75
483.8  2894
483.7  2871.25
483.6  2894
483.5  2941.25
483.4  2862.25
483.3  2825.75
483.2  2899
483.1  2885.75
483  2852.25
482.9  2907.25
482.8  2868
482.7  2881.75
482.6  2884.25
482.5  2857.75
482.4  2890.25
482.3  2901
482.2  2830.5
482.1  2855.75
482  2888
481.9  2864.75
481.8  2854.25
481.7  2911
481.6  2851
481.5  2881.25
481.4  2852.25
481.3  2864.25
481.2  2854
481.1  2858.5
481  2841.5
480.9  2845.75
480.8  2856.25
480.7  2892.75
480.6  2915.75
480.5  2843.25
480.4  2956.75
480.3  2839.5
480.2  2852
480.1  2857.75
480  2839.5

# Region:            O1s
# Acquisition Date:  09/13/22 22:14:42 UTC
# Analysis Method:   XPS
# Analyzer:          Phoibos 100 R6
# Analyzer Lens:     LargeArea:1.5kV
# Analyzer Slit:     1:0.2x20\B:open
# Scan Mode:         FixedAnalyzerTransmission
# Curves/Scan:       1
# Values/Curve:      111
# Dwell Time:        0.8
# Excitation Energy: 1486.61
# Binding Energy:    538
# Pass Energy:       30
# Bias Voltage:      90
# Detector Voltage:  2600
# Eff. Workfunction: 4.309
# Source:            X-Ray Dummy
# Comment:
#
# Cycle: 0
# Number of Scans: 50
#
# Cycle: 0, Curve: 0
# Acquisition Date: 09/13/22 22:14:42 UTC
#
# ColumnLabels: energy counts/s
#
538  3211.925
537.9  3224.4
537.8  3210.05
537.7  3203.35
537.6  3223.625
537.5  3207.175
537.4  3208.3
537.3  3196.525
537.2  3212.775
537.1  3223.475
537  3207.075
536.9  3218.7
536.8  3210.7
536.7  3213.8
536.6  3209.675
536.5  3228.375
536.4  3218.925
536.3  3224.425
536.2  3228.95
536.1  3239.6
536  3254
535.9  3250.475
535.8  3254.725
535.7  3269.825
535.6  3266.375
535.5  3267.45
535.4  3308.7
535.3  3306.55
535.2  3313.275
535.1  3325.125
535  3370.625
534.9  3381.05
534.8  3416.05
534.7  3433.275
534.6  3453.575
534.5  3485.975
534.4  3550.75
534.3  3565.075
534.2  3614.4
534.1  3647.125
534  3693.475
533.9  3719.325
533.8  3781.85
533.7  3834.9
533.6  3874.075
533.5  3931.8
533.4  3987.425
533.3  4005.55
533.2  4077.375
533.1  4128.875
533  4206.075
532.9  4244.7
532.8  4302.625
532.7  4371
532.6  4424.8
532.5  4531.325
532.4  4577.025
532.3  4670.775
532.2  4755.8
532.1  4826.325
532  4908.225
531.9  5000.225
531.8  5104.05
531.7  5162.3
531.6  5266.875
531.5  5365.975
531.4  5396.85
531.3  5464.975
531.2  5521.05
531.1  5521.075
531  5528.8
530.9  5522.275
530.8  5486.375
530.7  5417.45
530.6  5333.075
530.5  5206.9
530.4  5084.9
530.3  4915.3
530.2  4742.225
530.1  4548.175
530  4406.925
529.9  4249.9
529.8  4087.8
529.7  3940.275
529.6  3815.05
529.5  3676.625
529.4  3569.375
529.3  3489.05
529.2  3423.075
529.1  3356.7
529  3289.975
528.9  3271.125
528.8  3219
528.7  3193.975
528.6  3174.725
528.5  3159.675
528.4  3129.9
528.3  3126.3
528.2  3129.675
528.1  3130.75
528  3102.95
527.9  3107.525
527.8  3109.75
527.7  3086.85
527.6  3082.45
527.5  3084.675
527.4  3071.475
527.3  3069.375
527.2  3071.65
527.1  3089.45
527  3078.025

# Region:            Si2p
# Acquisition Date:  09/13/22 22:16:05 UTC
# Analysis Method:   XPS
# Analyzer:          Phoibos 100 R6
# Analyzer Lens:     LargeArea:1.5kV
# Analyzer Slit:     1:0.2x20\B:open
# Scan Mode:         FixedAnalyzerTransmission
# Curves/Scan:       1
# Values/Curve:      101
# Dwell Time:        0.8
# Excitation Energy: 1486.61
# Binding Energy:    110
# Pass Energy:       30
# Bias Voltage:      90
# Detector Voltage:  2600
# Eff. Workfunction: 4.309
# Source:            X-Ray Dummy
# Comment:
#
# Cycle: 0
# Number of Scans: 50
#
# Cycle: 0, Curve: 0
# Acquisition Date: 09/13/22 22:16:05 UTC
#
# ColumnLabels: energy counts/s
#
110  850.375
109.9  852.725
109.8  856.875
109.7  868.025
109.6  855.625
109.5  856.7
109.4  857.7
109.3  851.025
109.2  855.525
109.1  859.4
109  863.275
108.9  854.925
108.8  849.925
108.7  854.325
108.6  853.3
108.5  858.675
108.4  862.775
108.3  857.85
108.2  850.25
108.1  852.125
108  850.125
107.9  854.85
107.8  854.075
107.7  858.3
107.6  858.75
107.5  856.725
107.4  861.55
107.3  857.375
107.2  863.925
107.1  855.2
107  864.975
106.9  864.625
106.8  855.95
106.7  865.95
106.6  868.75
106.5  855.875
106.4  857.3
106.3  863.4
106.2  863.575
106.1  862.95
106  862.325
105.9  866.275
105.8  869.425
105.7  869.35
105.6  870.025
105.5  868.625
105.4  866.6
105.3  868.925
105.2  868.425
105.1  874.525
105  872.2
104.9  875.95
104.8  871.3
104.7  879.775
104.6  894.85
104.5  880.2
104.4  877.6
104.3  873.55
104.2  889.85
104.1  884.325
104  887.375
103.9  885.25
103.8  895.65
103.7  890.35
103.6  891.525
103.5  888.9
103.4  895.3
103.3  892.275
103.2  885.575
103.1  899.35
103  887.725
102.9  909.275
102.8  895.675
102.7  890.175
102.6  882.375
102.5  888.15
102.4  887.775
102.3  886.525
102.2  881.7
102.1  882.65
102  877
101.9  879.3
101.8  877.5
101.7  870.975
101.6  874.6
101.5  876.15
101.4  871.775
101.3  870.35
101.2  867.875
101.1  875.475
101  868.025
100.9  871.975
100.8  869.9
100.7  874.125
100.6  864.875
100.5  868.7
100.4  861.85
100.3  865.425
100.2  862.75
100.1  871.65
100  865.15

# Region:            N1s
# Acquisition Date:  09/14/22 00:00:00 UTC
# Analysis Method:   XPS
# Analyzer:          Phoibos 100 R6
# Analyzer Lens:     LargeArea:1.5kV
# Analyzer Slit:     1:0.2x20\B:open
# Scan Mode:         FixedAnalyzerTransmission
# Curves/Scan:       1
# Values/Curve:      121
# Dwell Time:        0.8
# Excitation Energy: 1486.61
# Binding Energy:    409
# Pass Energy:       30
# Bias Voltage:      90
# Detector Voltage:  2600
# Eff. Workfunction: 4.309
# Source:            X-Ray Dummy
# Comment:
#
# Cycle: 0
# Number of Scans: 100
#
# Cycle: 0, Curve: 0
# Acquisition Date: 09/14/22 00:00:00 UTC
#
# ColumnLabels: energy counts/s
#
409  995.9
408.9  996.975
408.8  995.15
408.7  994.6125
408.6  990.075
408.5  988.325
408.4  994.625
408.3  993.15
408.2  996.425
408.1  998.475
408  991.5125
407.9  987.0125
407.8  988.0625
407.7  1001.35
407.6  992.4625
407.5  997.9875
407.4  995.225
407.3  994.65
407.2  995.6125
407.1  1000.125
407  998.25
406.9  992.275
406.8  1002.1125
406.7  996.425
406.6  991
406.5  999.2625
406.4  995.2125
406.3  994.275
406.2  991.7375
406.1  1001.6625
406  997.5875
405.9  1012.3875
405.8  995.6625
405.7  1003.25
405.6  992.625
405.5  994.4375
405.4  999.3375
405.3  996.5375
405.2  998.3875
405.1  990.4875
405  996.975
404.9  1002.7375
404.8  998.9375
404.7  997.5125
404.6  1007.075
404.5  999.975
404.4  1000.6625
404.3  1000.25
404.2  988.2125
404.1  1005.125
404  1002.1375
403.9  996.1625
403.8  1004.5125
403.7  1000.0875
403.6  1007.6
403.5  999.8125
403.4  1001.325
403.3  1010.075
403.2  1011.4
403.1  1006.95
403  1017.975
402.9  1008.9875
402.8  1015.125
402.7  1028.2875
402.6  1023.9625
402.5  1024.5375
402.4  1025.1625
402.3  1032.6625
402.2  1028.25
402.1  1033.9
402  1038.8125
401.9  1041.4625
401.8  1048.7375
401.7  1054.9125
401.6  1059.8375
401.5  1058.5875
401.4  1067.3625
401.3  1069.0125
401.2  1071.1375
401.1  1066.9875
401  1073.2375
400.9  1072.6875
400.8  1077.7125
400.7  1075.15
400.6  1076.0375
400.5  1065.9125
400.4  1070.7125
400.3  1068.6375
400.2  1069.725
400.1  1066.7
400  1069.7125
399.9  1054.1625
399.8  1053.55
399.7  1045.275
399.6  1046.7375
399.5  1046.4
399.4  1039.6125
399.3  1034.3875
399.2  1029.5375
399.1  1026.525
399  1021.325
398.9  1018.4125
398.8  1018.9
398.7  1004.0125
398.6  1005.175
398.5  999.0125
398.4  1000.3625
398.3  994.575
398.2  992.25
398.1  992.875
398  992.675
397.9  988.025
397.8  991.2
397.7  983.6625
397.6  981.9125
397.5  982.65
397.4  981.075
397.3  981.6
397.2  982.25
397.1  974.7375
397  984.1

# Region:            Si2s
# Acquisition Date:  09/13/22 23:10:50 UTC
# Analysis Method:   XPS
# Analyzer:          Phoibos 100 R6
# Analyzer Lens:     LargeArea:1.5kV
# Analyzer Slit:     1:0.2x20\B:open
# Scan Mode:         FixedAnalyzerTransmission
# Curves/Scan:       1
# Values/Curve:      71
# Dwell Time:        0.8
# Excitation Energy: 1486.61
# Binding Energy:    157
# Pass Energy:       30
# Bias Voltage:      90
# Detector Voltage:  2600
# Eff. Workfunction: 4.309
# Source:            X-Ray Dummy
# Comment:
#
# Cycle: 0
# Number of Scans: 70
#
# Cycle: 0, Curve: 0
# Acquisition Date: 09/13/22 23:10:50 UTC
#
# ColumnLabels: energy counts/s
#
157  896.03571
156.9  888.73214
156.8  897.98214
156.7  894.98214
156.6  884.91071
156.5  894.19643
156.4  893.75
156.3  886.94643
156.2  898.875
156.1  896.71429
156  894.78571
155.9  895.78571
155.8  895.125
155.7  893.14286
155.6  909.28571
155.5  895.58929
155.4  898.48214
155.3  900.75
155.2  904.69643
155.1  902.55357
155  897.48214
154.9  901.28571
154.8  899.39286
154.7  906.53571
154.6  904.21429
154.5  906.19643
154.4  899.80357
154.3  898.41071
154.2  909.82143
154.1  897.26786
154  904.125
153.9  899.82143
153.8  899.30357
153.7  899.41071
153.6  892.39286
153.5  897.26786
153.4  904.53571
153.3  894.58929
153.2  889.32143
153.1  898.98214
153  890.5
152.9  890.19643
152.8  885.32143
152.7  884.44643
152.6  889.57143
152.5  885.89286
152.4  887.75
152.3  893.78571
152.2  896.48214
152.1  880.10714
152  880.08929
151.9  877.96429
151.8  883.05357
151.7  876.51786
151.6  879.08929
151.5  885.75
151.4  882.28571
151.3  882.57143
151.2  876.26786
151.1  881.32143
151  880.66071
150.9  881.98214
150.8  885.125
150.7  883.48214
150.6  873.35714
150.5  882.10714
150.4  875.69643
150.3  876.48214
150.2  875.71429
150.1  879.92857
150  883.96429

# Group:             overview_HD
#
# Region:            overview_HD
# Acquisition Date:  09/14/22 06:51:17 UTC
# Analysis Method:   XPS
# Analyzer:          Phoibos 100 R6
# Analyzer Lens:     LargeArea:1.5kV
# Analyzer Slit:     1:0.2x20\B:open
# Scan Mode:         FixedAnalyzerTransmission
# Curves/Scan:       1
# Values/Curve:      6021
# Dwell Time:        0.4
# Excitation Energy: 1486.61
# Binding Energy:    1200
# Pass Energy:       30
# Bias Voltage:      90
# Detector Voltage:  2600
# Eff. Workfunction: 4.309
# Source:            X-Ray Dummy
# Comment:
#
# Cycle: 0
# Number of Scans: 10
#
# Cycle: 0, Curve: 0
# Acquisition Date: 09/14/22 06:51:17 UTC
#
# ColumnLabels: energy counts/s
#
1200  9242
1199.8  9145
1199.6  9125.25
1199.4  9150.75
1199.2  9173.25
1199  9127.25
1198.8  9051
1198.6  9230
1198.4  9189
1198.2  9031.25
1198  9031.5
1197.8  9197.75
1197.6  9058.5
1197.4  9161.75
1197.2  9119.5
1197  9140.25
1196.8  9127.75
1196.6  9225.25
1196.4  9109
1196.2  9152.5
1196  9202
1195.8  9047.75
1195.6  9108.25
1195.4  9139.25
1195.2  9183.5
1195  9143.75
1194.8  9143.5
1194.6  9084.5
1194.4  9118.5
1194.2  9249.5
1194  9175.25
1193.8  9186.75
1193.6  9200
1193.4  9075
1193.2  9164.5
1193  9128.5
1192.8  9225.5
1192.6  9201.25
1192.4  9212.5
1192.2  9154.75
1192  9120
1191.8  9178.25
1191.6  9187
1191.4  9135.75
1191.2  9087.25
1191  9225.5
1190.8  9144.25
1190.6  9128.25
1190.4  9110.75
1190.2  9102.75
1190  9047.5
1189.8  9063.25
1189.6  9097
1189.4  9022.25
1189.2  9099
1189  9009
1188.8  8995.25
1188.6  9054.25
1188.4  9045.25
1188.2  8995.5
1188  8941.5
1187.8  9008.75
1187.6  8989.5
1187.4  9048.5
1187.2  9130.5
1187  8972.75
1186.8  8984
1186.6  8933.5
1186.4  8944.75
1186.2  9038.5
1186  8950.5
1185.8  8930.75
1185.6  8978.5
1185.4  8981.25
1185.2  8884.75
1185  8912.5
1184.8  8976.25
1184.6  8919.75
1184.4  8854.5
1184.2  8920
1184  8892.75
1183.8  8958.5
1183.6  8848.5
1183.4  8858.5
1183.2  8896.75
1183  8920
1182.8  8945.25
1182.6  8895.25
1182.4  8874.5
1182.2  8812.5
1182  8797.75
1181.8  8848.75
1181.6  8847.5
1181.4  8779.25
1181.2  8846.5
1181  8885.75
1180.8  8832
1180.6  8742.25
1180.4  8782.75
1180.2  8811.25
1180  8749
1179.8  8850.5
1179.6  8774
1179.4  8705
1179.2  8708.25
1179  8803
1178.8  8744.25
1178.6  8841.5
1178.4  8766.5
1178.2  8777.75
1178  8788.5
1177.8  8758.75
1177.6  8755.5
1177.4  8772.25
1177.2  8675.75
1177  8753.5
1176.8  8750.75
1176.6  8844.75
1176.4  8781.5
1176.2  8709.5
1176  8778.25
1175.8  8834.75
1175.6  8737.5
1175.4  8758
1175.2  8682.25
1175  8815
1174.8  8783.5
1174.6  8715.25
1174.4  8737
1174.2  8802.75
1174  8784.5
1173.8  8746.25
1173.6  8778.25
1173.4  8791.5
1173.2  8702.25
1173  8773.75
1172.8  8766.5
1172.6  8799.75
1172.4  8739
1172.2  8730
1172  8736.25
1171.8  8726.5
1171.6  8773.5
1171.4  8722.75
1171.2  8750.75
1171  8793
1170.8  8689.75
1170.6  8779.75
1170.4  8720.25
1170.2  8754.75
1170  8712.5
1169.8  8719.5
1169.6  8673.5
1169.4  8757
1169.2  8787.25
1169  8649
1168.8  8706
1168.6  8761.25
1168.4  8682
1168.2  8690.25
1168  8682.75
1167.8  8724
1167.6  8721.75
1167.4  8752
1167.2  8621.75
1167  8673.5
1166.8  8774.75
1166.6  8713.25
1166.4  8769.5
1166.2  8676.25
1166  8776.5
1165.8  8770
1165.6  8703.25
1165.4  8709.25
1165.2  8653.75
1165  8706.75
1164.8  8695.75
1164.6  8705.5
1164.4  8659.5
1164.2  8711
1164  8781.75
1163.8  8678
1163.6  8671
1163.4  8713.75
1163.2  8657
1163  8753
1162.8  8729
1162.6  8717.25
1162.4  8808.75
1162.2  8701
1162  8764
1161.8  8635
1161.6  8687
1161.4  8699.75
1161.2  8692.25
1161  8665.75
1160.8  8672
1160.6  8678.25
1160.4  8690.75
1160.2  8699.75
1160  8688
1159.8  8714
1159.6  8604.5
1159.4  8590
1159.2  8746.5
1159  8692.25
1158.8  8592.75
1158.6  8640.5
1158.4  8563.5
1158.2  8611.5
1158  8657.5
1157.8  8669.25
1157.6  8654
1157.4  8517.75
1157.2  8640.75
1157  8597.25
1156.8  8639
1156.6  8596
1156.4  8692.5
1156.2  8684
1156  8578
1155.8  8608
1155.6  8652
1155.4  8601.5
1155.2  8632
1155  8705.5
1154.8  8650
1154.6  8692.5
1154.4  8533.75
1154.2  8668
1154  8642
1153.8  8622.5
1153.6  8690.25
1153.4  8571.5
1153.2  8575.25
1153  8538.75
1152.8  8554.75
1152.6  8607
1152.4  8587.75
1152.2  8603.5
1152  8565.75
1151.8  8691
1151.6  8511.5
1151.4  8565.5
1151.2  8550.25
1151  8519.75
1150.8  8558.25
1150.6  8621
1150.4  8558.25
1150.2  8522.5
1150  8520.5
1149.8  8552.75
1149.6  8522.5
1149.4  8435
1149.2  8526.5
1149  8448
1148.8  8463.25
1148.6  8528.5
1148.4  8472
1148.2  8489
1148  8417.75
1147.8  8551.25
1147.6  8477.5
1147.4  8418
1147.2  8542.25
1147  8572.5
1146.8  8497.5
1146.6  8532.75
1146.4  8529.75
1146.2  8510
1146  8413.25
1145.8  8449.25
1145.6  8523.25
1145.4  8482.5
1145.2  8401
1145  8416.25
1144.8  8404.25
1144.6  8392.75
1144.4  8385
1144.2  8359.25
1144  8357.75
1143.8  8340.25
1143.6  8388.25
1143.4  8355
1143.2  8321.25
1143  8300.5
1142.8  8326.75
1142.6  8307.5
1142.4  8257.25
1142.2  8250
1142  8292.5
1141.8  8309.5
1141.6  8255.25
1141.4  8251.25
1141.2  8262.25
1141  8231
1140.8  8158.5
1140.6  8253
1140.4  8140
1140.2  8135.25
1140  8149.25
1139.8  8151.25
1139.6  8174.75
1139.4  8117.5
1139.2  8167
1139  8081.5
1138.8  8073.25
1138.6  8046
1138.4  8170.25
1138.2  8116.25
1138  8015
1137.8  8028.25
1137.6  8065
1137.4  7945.75
1137.2  8009
1137  8023.5
1136.8  8048.25
1136.6  7979
1136.4  7975.75
1136.2  7947.75
1136  7953.75
1135.8  7972.75
1135.6  7911.5
1135.4  8065
1135.2  7903.75
1135  7850
1134.8  7898.25
1134.6  8004
1134.4  7907.5
1134.2  7995.5
1134  7859.5
1133.8  7839.5
1133.6  7924
1133.4  7857.25
1133.2  7796.25
1133  7803.5
1132.8  7807.75
1132.6  7810.75
1132.4  7798
1132.2  7840.5
1132  7746.5
1131.8  7845
1131.6  7828.25
1131.4  7799
1131.2  7823.75
1131  7803.75
1130.8  7834.5
1130.6  7715
1130.4  7774.5
1130.2  7790.75
1130  7773
1129.8  7768.5
1129.6  7648.75
1129.4  7739.25
1129.2  7746.25
1129  7745.25
1128.8  7707.75
1128.6  7730.25
1128.4  7719.25
1128.2  7643.5
1128  7703
1127.8  7739.25
1127.6  7772
1127.4  7748
1127.2  7733.5
1127  7741.25
1126.8  7710.5
1126.6  7765
1126.4  7711.25
1126.2  7736.5
1126  7659.5
1125.8  7700.75
1125.6  7602
1125.4  7663
1125.2  7711
1125  7765
1124.8  7738.25
1124.6  7775.75
1124.4  7690.25
1124.2  7671
1124  7715.5
1123.8  7676.5
1123.6  7705.5
1123.4  7683.25
1123.2  7605.5
1123  7650.5
1122.8  7610.5
1122.6  7639.5
1122.4  7663.25
1122.2  7649.5
1122  7700.75
1121.8  7665.25
1121.6  7695.75
1121.4  7708.75
1121.2  7611.75
1121  7610.5
1120.8  7690
1120.6  7657.25
1120.4  7654.75
1120.2  7675.5
1120  7637
1119.8  7729.25
1119.6  7621
1119.4  7731
1119.2  7681.5
1119  7608.25
1118.8  7625.25
1118.6  7682.5
1118.4  7649
1118.2  7766.75
1118  7623
1117.8  7674.25
1117.6  7600.75
1117.4  7734.25
1117.2  7676.75
1117  7683
1116.8  7715.75
1116.6  7680
1116.4  7694.75
1116.2  7689.25
1116  7683
1115.8  7605.25
1115.6  7683.25
1115.4  7748.5
1115.2  7672.5
1115  7746.75
1114.8  7679.25
1114.6  7738.75
1114.4  7680
1114.2  7647.25
1114  7634.25
1113.8  7768.75
1113.6  7691.25
1113.4  7663.25
1113.2  7704
1113  7743.5
1112.8  7637.75
1112.6  7729.75
1112.4  7738
1112.2  7603.25
1112  7660
1111.8  7736
1111.6  7716.25
1111.4  7737.25
1111.2  7711.75
1111  7744.75
1110.8  7663.5
1110.6  7712.25
1110.4  7736.5
1110.2  7697.75
1110  7717.75
1109.8  7712
1109.6  7672.25
1109.4  7777.75
1109.2  7709.25
1109  7706.5
1108.8  7685.75
1108.6  7667.5
1108.4  7638.75
1108.2  7712.75
1108  7634.5
1107.8  7685.5
1107.6  7658.75
1107.4  7721
1107.2  7677
1107  7682
1106.8  7718.25
1106.6  7725
1106.4  7599.75
1106.2  7667
1106  7597.5
1105.8  7706.5
1105.6  7658
1105.4  7695.5
1105.2  7600.75
1105  7607.75
1104.8  7661.5
1104.6  7623.75
1104.4  7689.75
1104.2  7631.75
1104  7612
1103.8  7591.5
1103.6  7544
1103.4  7593.25
1103.2  7596.25
1103  7551.5
1102.8  7649.75
1102.6  7509.25
1102.4  7626.25
1102.2  7581.75
1102  7570.75
1101.8  7484
1101.6  7564.5
1101.4  7550.25
1101.2  7509
1101  7513
1100.8  7528.25
1100.6  7606.25
1100.4  7514
1100.2  7505.75
1100  7535.75
1099.8  7538.75
1099.6  7502.75
1099.4  7465.75
1099.2  7546.5
1099  7367.75
1098.8  7418.5
1098.6  7485.75
1098.4  7498
1098.2  7471.25
1098  7433.5
1097.8  7442.5
1097.6  7403.25
1097.4  7477.5
1097.2  7452
1097  7373.25
1096.8  7442.25
1096.6  7377.25
1096.4  7405.25
1096.2  7444.75
1096  7468.25
1095.8  7427.5
1095.6  7453.5
1095.4  7532.5
1095.2  7481
1095  7393.5
1094.8  7466.75
1094.6  7458
1094.4  7425.5
1094.2  7442.5
1094  7453
1093.8  7434.25
1093.6  7508.5
1093.4  7435.5
1093.2  7417.5
1093  7409.25
1092.8  7538
1092.6  7537.75
1092.4  7565.75
1092.2  7551.5
1092  7557.5
1091.8  7579.25
1091.6  7640.25
1091.4  7629.25
1091.2  7663.75
1091  7755
1090.8  7767.5
1090.6  7877.25
1090.4  7833
1090.2  7888.5
1090  8023.75
1089.8  8084
1089.6  8196.5
1089.4  8234
1089.2  8333
1089  8429.75
1088.8  8550.25
1088.6  8520.25
1088.4  8652
1088.2  8722.25
1088  8871
1087.8  8856.25
1087.6  8973.25
1087.4  9011
1087.2  8958.5
1087  9081.25
1086.8  9056.5
1086.6  9153.75
1086.4  9025
1086.2  9143.25
1086  9081.25
1085.8  8941.5
1085.6  8908.5
1085.4  8744.25
1085.2  8737.75
1085  8615
1084.8  8520.75
1084.6  8529.75
1084.4  8364
1084.2  8322
1084  8271.75
1083.8  8171
1083.6  8027.25
1083.4  8068.25
1083.2  7956.25
1083  7940
1082.8  7868.75
1082.6  7868
1082.4  7813.75
1082.2  7890.75
1082  7849
1081.8  7740
1081.6  7878.75
1081.4  7827.5
1081.2  7820
1081  7879.75
1080.8  7842.75
1080.6  7827.5
1080.4  7911.5
1080.2  7877
1080  7847.75
1079.8  7877.25
1079.6  7843.25
1079.4  7692.75
1079.2  7818.75
1079  7698.75
1078.8  7678.5
1078.6  7601.75
1078.4  7520.25
1078.2  7424.5
1078  7328.75
1077.8  7298.25
1077.6  7173.75
1077.4  7001.5
1077.2  6908.25
1077  6912.25
1076.8  6925.75
1076.6  6748.75
1076.4  6699.5
1076.2  6673
1076  6579
1075.8  6614.25
1075.6  6618.25
1075.4  6530.25
1075.2  6429.5
1075  6390.75
1074.8  6351.75
1074.6  6342.25
1074.4  6446.75
1074.2  6393.5
1074  6432.25
1073.8  6449.25
1073.6  6408
1073.4  6370.75
1073.2  6419.5
1073  6498.5
1072.8  6485
1072.6  6510.25
1072.4  6537
1072.2  6499
1072  6464.5
1071.8  6386.5
1071.6  6466.25
1071.4  6397.25
1071.2  6360.75
1071  6322.75
1070.8  6308.5
1070.6  6266
1070.4  6219.25
1070.2  6183.5
1070  6175.75
1069.8  6273
1069.6  6175.75
1069.4  6315
1069.2  6325.75
1069  6259.5
1068.8  6310.25
1068.6  6207.75
1068.4  6273.25
1068.2  6244.25
1068  6290
1067.8  6217.5
1067.6  6238.25
1067.4  6239
1067.2  6252.25
1067  6212
1066.8  6253.5
1066.6  6213
1066.4  6234.5
1066.2  6332.5
1066  6231.5
1065.8  6167.5
1065.6  6263
1065.4  6253
1065.2  6302.75
1065  6310
1064.8  6283.25
1064.6  6238.25
1064.4  6321.75
1064.2  6316
1064  6254.5
1063.8  6377.75
1063.6  6267
1063.4  6318
1063.2  6316.5
1063  6343
1062.8  6337.25
1062.6  6330.5
1062.4  6366.25
1062.2  6294
1062  6331.5
1061.8  6377
1061.6  6395.75
1061.4  6342.75
1061.2  6447.75
1061  6367.25
1060.8  6321
1060.6  6327
1060.4  6347.75
1060.2  6346.5
1060  6325.25
1059.8  6292
1059.6  6273
1059.4  6231.75
1059.2  6219.75
1059  6195.75
1058.8  6183.25
1058.6  6169
1058.4  6158.75
1058.2  6100.25
1058  6039
1057.8  6098.5
1057.6  6070.25
1057.4  6003
1057.2  5988.75
1057  5969.75
1056.8  5994.25
1056.6  6019
1056.4  5996.75
1056.2  5922.75
1056  5949.75
1055.8  5983.25
1055.6  5969.25
1055.4  6021.75
1055.2  5963.25
1055  5958.5
1054.8  5965
1054.6  5937
1054.4  5962
1054.2  5995.5
1054  5981.75
1053.8  5938.75
1053.6  5998.75
1053.4  6041.5
1053.2  5999.25
1053  5959.5
1052.8  5960.75
1052.6  5960
1052.4  5942
1052.2  5956
1052  5900.75
1051.8  5891.25
1051.6  5876
1051.4  5891.5
1051.2  5785
1051  5871.25
1050.8  5834.75
1050.6  5815.5
1050.4  5793.5
1050.2  5796
1050  5723.75
1049.8  5745.75
1049.6  5771.25
1049.4  5755
1049.2  5799.5
1049  5785.75
1048.8  5695.5
1048.6  5742.5
1048.4  5700.5
1048.2  5755
1048  5736
1047.8  5663.75
1047.6  5715.25
1047.4  5712.5
1047.2  5704.5
1047  5743.75
1046.8  5728
1046.6  5718.25
1046.4  5685.75
1046.2  5811.5
1046  5730
1045.8  5751.75
1045.6  5710.5
1045.4  5644.5
1045.2  5702.75
1045  5718.25
1044.8  5686.75
1044.6  5769
1044.4  5690.75
1044.2  5694
1044  5681.75
1043.8  5728.75
1043.6  5666.25
1043.4  5641
1043.2  5669.25
1043  5656
1042.8  5709.25
1042.6  5707.5
1042.4  5725.75
1042.2  5660
1042  5740.5
1041.8  5673.25
1041.6  5680.5
1041.4  5661
1041.2  5622.75
1041  5819.75
1040.8  5609.25
1040.6  5671.75
1040.4  5691.75
1040.2  5673.75
1040  5683
1039.8  5735.25
1039.6  5693.5
1039.4  5664.5
1039.2  5766.25
1039  5638.25
1038.8  5666
1038.6  5713.75
1038.4  5697.5
1038.2  5666
1038  5694.25
1037.8  5681.75
1037.6  5738.25
1037.4  5651
1037.2  5711
1037  5614.5
1036.8  5694
1036.6  5636.25
1036.4  5755.25
1036.2  5679.75
1036  5636.5
1035.8  5718.75
1035.6  5664.25
1035.4  5713.5
1035.2  5700
1035  5628.75
1034.8  5712
1034.6  5668.75
1034.4  5706.75
1034.2  5713
1034  5698.75
1033.8  5662.75
1033.6  5618.25
1033.4  5690.75
1033.2  5740.75
1033  5688.75
1032.8  5646.25
1032.6  5673.75
1032.4  5665.75
1032.2  5737.5
1032  5684.5
1031.8  5749.75
1031.6  5687.25
1031.4  5766.75
1031.2  5708.5
1031  5604
1030.8  5700.25
1030.6  5718
1030.4  5808.25
1030.2  5603.75
1030  5617.75
1029.8  5668
1029.6  5698.75
1029.4  5683.25
1029.2  5707.75
1029  5734.75
1028.8  5713
1028.6  5724.25
1028.4  5689.25
1028.2  5684.25
1028  5672
1027.8  5610.25
1027.6  5730.5
1027.4  5745
1027.2  5648.75
1027  5654.75
1026.8  5662.5
1026.6  5716
1026.4  5657.75
1026.2  5656
1026  5702.75
1025.8  5655.25
1025.6  5748
1025.4  5639
1025.2  5714
1025  5665.25
1024.8  5671.75
1024.6  5647.75
1024.4  5657
1024.2  5689.75
1024  5729.25
1023.8  5690.75
1023.6  5731
1023.4  5687.5
1023.2  5742
1023  5692
1022.8  5773.25
1022.6  5817
1022.4  5741.5
1022.2  5761.75
1022  5729.75
1021.8  5758.25
1021.6  5701.75
1021.4  5706.25
1021.2  5740.25
1021  5720.25
1020.8  5663.25
1020.6  5725
1020.4  5686.25
1020.2  5752
1020  5726
1019.8  5726.5
1019.6  5751.5
1019.4  5648
1019.2  5690.75
1019  5700
1018.8  5725.5
1018.6  5654.75
1018.4  5655.5
1018.2  5668.5
1018  5659.25
1017.8  5719.75
1017.6  5701
1017.4  5660.75
1017.2  5720.75
1017  5724.75
1016.8  5706.5
1016.6  5664.25
1016.4  5736
1016.2  5745.5
1016  5744
1015.8  5709
1015.6  5683
1015.4  5764.75
1015.2  5672
1015  5712.75
1014.8  5751.25
1014.6  5813.25
1014.4  5723.75
1014.2  5729.25
1014  5751.5
1013.8  5710.5
1013.6  5769.25
1013.4  5748
1013.2  5700.75
1013  5709.5
1012.8  5732
1012.6  5729
1012.4  5779
1012.2  5726.5
1012  5680
1011.8  5694.5
1011.6  5706.5
1011.4  5636.75
1011.2  5764.25
1011  5634.5
1010.8  5750.75
1010.6  5682.5
1010.4  5718.75
1010.2  5694.25
1010  5726.25
1009.8  5754.75
1009.6  5769.25
1009.4  5755
1009.2  5726
1009  5733
1008.8  5713.75
1008.6  5706.25
1008.4  5690.5
1008.2  5702.75
1008  5708.75
1007.8  5667.5
1007.6  5681
1007.4  5673
1007.2  5722.5
1007  5725.25
1006.8  5694.5
1006.6  5716.5
1006.4  5683.5
1006.2  5676.25
1006  5697.75
1005.8  5725
1005.6  5667.75
1005.4  5674
1005.2  5707
1005  5708.5
1004.8  5673.5
1004.6  5675.25
1004.4  5705.5
1004.2  5677.25
1004  5736.75
1003.8  5682
1003.6  5729.25
1003.4  5715.75
1003.2  5677.75
1003  5752
1002.8  5662
1002.6  5722.25
1002.4  5714.25
1002.2  5696.75
1002  5722
1001.8  5772.25
1001.6  5688.5
1001.4  5753.75
1001.2  5712.5
1001  5746.5
1000.8  5791.25
1000.6  5842.25
1000.4  5770.75
1000.2  5779.25
1000  5768
999.8  5838
999.6  5756.75
999.4  5798
999.2  5757.25
999  5899.75
998.8  5812.75
998.6  5782.25
998.4  5814
998.2  5804.5
998  5748
997.8  5821.75
997.6  5779
997.4  5865.5
997.2  5861
997  5800.25
996.8  5805
996.6  5804.75
996.4  5872.75
996.2  5847.25
996  5855.5
995.8  5865
995.6  5897.75
995.4  5871.25
995.2  5951
995  5819.5
994.8  5842
994.6  5903
994.4  5822
994.2  5806.5
994  5813.75
993.8  5795
993.6  5700.25
993.4  5787
993.2  5737.5
993  5759.75
992.8  5790.25
992.6  5724.5
992.4  5664
992.2  5671.5
992  5729
991.8  5681.25
991.6  5635.25
991.4  5650.5
991.2  5655.75
991  5697.75
990.8  5697.5
990.6  5707.25
990.4  5612.5
990.2  5623.25
990  5685.5
989.8  5648.75
989.6  5599.5
989.4  5590.25
989.2  5579
989  5670.25
988.8  5646.25
988.6  5633.25
988.4  5583.5
988.2  5709
988  5646.25
987.8  5575.75
987.6  5533.5
987.4  5612.25
987.2  5709.75
987  5638.25
986.8  5580.5
986.6  5621.5
986.4  5550.75
986.2  5525.5
986  5539.25
985.8  5568
985.6  5592
985.4  5494.25
985.2  5509
985  5496.25
984.8  5470
984.6  5539.25
984.4  5521.25
984.2  5540.75
984  5467
983.8  5518
983.6  5543
983.4  5514.75
983.2  5502
983  5573.75
982.8  5531.5
982.6  5613.5
982.4  5523.75
982.2  5629.75
982  5579.25
981.8  5574
981.6  5596.75
981.4  5621.5
981.2  5498.25
981  5598.5
980.8  5625.75
980.6  5620.5
980.4  5627.25
980.2  5653.75
980  5596
979.8  5672.5
979.6  5639.5
979.4  5607.25
979.2  5684.25
979  5678.75
978.8  5676
978.6  5750.25
978.4  5758.25
978.2  5852.75
978  5865
977.8  5872.5
977.6  5931.75
977.4  5966.75
977.2  5975.25
977  6005.75
976.8  6097.5
976.6  6215.5
976.4  6202.5
976.2  6217.5
976  6206
975.8  6300.75
975.6  6335.75
975.4  6283
975.2  6324.75
975  6352
974.8  6360.75
974.6  6384.5
974.4  6230
974.2  6222.25
974  6163.25
973.8  6146.25
973.6  6096.5
973.4  5976
973.2  5910
973  5839.75
972.8  5800.5
972.6  5788.75
972.4  5750.25
972.2  5693
972  5678
971.8  5620.5
971.6  5615
971.4  5558
971.2  5542.5
971  5588.25
970.8  5469.75
970.6  5498.5
970.4  5485.5
970.2  5469.75
970  5394
969.8  5473.25
969.6  5356.75
969.4  5453.75
969.2  5361
969  5320.25
968.8  5357
968.6  5322.25
968.4  5278
968.2  5328.75
968  5318.75
967.8  5226.25
967.6  5309
967.4  5187.25
967.2  5257.5
967  5187.75
966.8  5175.5
966.6  5169.75
966.4  5188.75
966.2  5142.75
966  5167.75
965.8  5091.5
965.6  5108
965.4  5110
965.2  5105.25
965  5045
964.8  5013.75
964.6  5026.25
964.4  5066.75
964.2  5042.75
964  5070.5
963.8  5042.75
963.6  5028.75
963.4  5033
963.2  5060.25
963  5010
962.8  4945.75
962.6  5024.25
962.4  4984
962.2  5047.75
962  5034.75
961.8  5038.25
961.6  5035
961.4  5031.75
961.2  5019.75
961  5082.25
960.8  5024
960.6  5033.25
960.4  5061.25
960.2  5057.25
960  5034.5
959.8  4975
959.6  4999.5
959.4  5052.75
959.2  5001
959  4950
958.8  5006
958.6  5028.75
958.4  5013
958.2  5009
958  5073.5
957.8  4955.5
957.6  5007.75
957.4  5017.25
957.2  4965.75
957  4960.75
956.8  4978
956.6  5027.25
956.4  5006.25
956.2  4978
956  4947
955.8  4975.75
955.6  4968.25
955.4  5006.5
955.2  5005
955  4955.75
954.8  5014.25
954.6  5012
954.4  4987
954.2  5018.5
954  4958.5
953.8  5029.75
953.6  4942.75
953.4  5004.25
953.2  5014
953  4924.75
952.8  5008.25
952.6  4960
952.4  5030.75
952.2  5055.25
952  4902.75
951.8  4983
951.6  5026.75
951.4  4974.5
951.2  4952
951  5002
950.8  4998.75
950.6  5023.5
950.4  4935.5
950.2  4970
950  5044.75
949.8  5033.25
949.6  5028.25
949.4  4995.75
949.2  5031.25
949  5045
948.8  5039.25
948.6  4926.5
948.4  4961
948.2  4958.75
948  4928
947.8  5002.5
947.6  4933.25
947.4  4957.5
947.2  4931.5
947  4935
946.8  5041.5
946.6  4998.75
946.4  4963.25
946.2  4982.75
946  4983.75
945.8  5023.75
945.6  4971.25
945.4  4977.5
945.2  4972.25
945  4963
944.8  5057.75
944.6  4919
944.4  4930.25
944.2  5027.75
944  4963.25
943.8  5024.5
943.6  4995.5
943.4  4992.25
943.2  4968.5
943  4945.25
942.8  4938.25
942.6  4998
942.4  5013.5
942.2  4986.5
942  5018.5
941.8  4984.75
941.6  4951.75
941.4  5010.75
941.2  4972.5
941  4986
940.8  4964
940.6  4978
940.4  4980.25
940.2  4973.5
940  4982.75
939.8  5234.5
939.6  4967.75
939.4  4981.5
939.2  4956.25
939  4972.5
938.8  4913
938.6  5012
938.4  4973.25
938.2  4952.75
938  5008.25
937.8  5020
937.6  4967.25
937.4  5000.75
937.2  4947.5
937  5010
936.8  4963.5
936.6  5016.25
936.4  4967.25
936.2  5008.75
936  4990.75
935.8  4986.75
935.6  5002
935.4  5007.25
935.2  4946.5
935  4981.5
934.8  4973
934.6  4974
934.4  5012.75
934.2  4971.75
934  5065.25
933.8  4978.25
933.6  4965.25
933.4  4999.25
933.2  5010.5
933  4993.25
932.8  5038.5
932.6  4970
932.4  4983.5
932.2  4995
932  5010.25
931.8  4927.5
931.6  4928.5
931.4  4908
931.2  4959
931  4983
930.8  5038.25
930.6  4980.5
930.4  4982.5
930.2  4962.5
930  4991.75
929.8  4902.5
929.6  4993.75
929.4  4957.75
929.2  5056.5
929  4984.75
928.8  4999.25
928.6  4931.75
928.4  5001.75
928.2  5004.25
928  4976.25
927.8  5045
927.6  5001.25
927.4  5005.5
927.2  4991.25
927  4889.25
926.8  4995.5
926.6  5044.25
926.4  4948.5
926.2  4957.75
926  5045.75
925.8  4953.5
925.6  4977
925.4  5014.5
925.2  4912.75
925  4919.75
924.8  4946
924.6  5002
924.4  4969
924.2  4916
924  4939.25
923.8  4977.75
923.6  4963.5
923.4  4994.5
923.2  4947.5
923  4953
922.8  4960.5
922.6  4945
922.4  4941
922.2  4950.25
922  4942.75
921.8  4893.75
921.6  4991
921.4  5011
921.2  4941.75
921  4989.5
920.8  4912
920.6  4989
920.4  4944.25
920.2  5003.75
920  4960.25
919.8  4981.5
919.6  4998
919.4  4948
919.2  4912.5
919  5052.75
918.8  4956
918.6  4929.75
918.4  4967.5
918.2  4966.25
918  4955
917.8  4960
917.6  4952
917.4  4899
917.2  4966
917  4941.5
916.8  4942.75
916.6  4928.25
916.4  4931.75
916.2  4935
916  4945
915.8  5036.25
915.6  4929.25
915.4  4914.75
915.2  4945.75
915  4963.5
914.8  4964.25
914.6  4922.25
914.4  4965.75
914.2  4970.25
914  4966.5
913.8  5026.5
913.6  4945.25
913.4  5005.75
913.2  4972.25
913  4957.25
912.8  5010.5
912.6  4953.75
912.4  4919.75
912.2  4908.5
912  4950
911.8  4984.75
911.6  4973.25
911.4  4998.75
911.2  4951
911  4924
910.8  4908.75
910.6  4981
910.4  5006.75
910.2  4983.75
910  4952
909.8  4961
909.6  4948
909.4  4958.25
909.2  4961.5
909  4966.75
908.8  4979.5
908.6  4947.75
908.4  4948.5
908.2  4997
908  4961.5
907.8  5015.75
907.6  4910.75
907.4  4967.75
907.2  5050.75
907  4951.25
906.8  5004.75
906.6  4949.75
906.4  4916.75
906.2  4913.25
906  5034.5
905.8  4969
905.6  4969.25
905.4  4989.25
905.2  5005
905  4980
904.8  5003.25
904.6  4999.75
904.4  4973.5
904.2  5002.25
904  4992.25
903.8  5006.25
903.6  4963.5
903.4  5030.75
903.2  4992.75
903  5011.75
902.8  4987.5
902.6  4957
902.4  5000.5
902.2  5022.75
902  5051.25
901.8  4934.25
901.6  5008.5
901.4  4984.5
901.2  5012.5
901  4987.25
900.8  4955.25
900.6  4955
900.4  5051.75
900.2  4912.75
900  5058.25
899.8  5018.75
899.6  4961.5
899.4  4926
899.2  4995.25
899  4910
898.8  4965
898.6  4938.5
898.4  5006
898.2  4934.75
898  4962.75
897.8  4994.25
897.6  5012.25
897.4  4976.5
897.2  4908
897  4970.25
896.8  4878.25
896.6  5032
896.4  4939.5
896.2  5003.25
896  4850.25
895.8  4935.75
895.6  4839.5
895.4  4954.75
895.2  4934.75
895  4973.75
894.8  4989.5
894.6  4914
894.4  4921.75
894.2  4947.75
894  4904.5
893.8  4950
893.6  4905.75
893.4  4929
893.2  4917.25
893  4941.75
892.8  4924.75
892.6  4905.75
892.4  4981.5
892.2  4904.75
892  4939.5
891.8  4957.75
891.6  4964.25
891.4  4929.75
891.2  5007.25
891  4948.25
890.8  4933.25
890.6  4973.25
890.4  4942.75
890.2  4904.5
890  4863
889.8  4914.25
889.6  4906.75
889.4  4910.75
889.2  4937
889  4957
888.8  4969
888.6  4915
888.4  4956.25
888.2  4941.25
888  4880.75
887.8  4930
887.6  4973.75
887.4  4920.25
887.2  4896
887  4924
886.8  4962.5
886.6  4926.25
886.4  4936.25
886.2  4878.75
886  4882
885.8  4964.25
885.6  4862.75
885.4  4865.5
885.2  4921.75
885  4913.5
884.8  4852.25
884.6  4882.75
884.4  4826.25
884.2  4827.75
884  4918
883.8  4862
883.6  4945
883.4  4904.75
883.2  4883
883  4895
882.8  4905.75
882.6  4865.75
882.4  4869
882.2  4912.75
882  4871.25
881.8  4867.5
881.6  4852.5
881.4  4840.5
881.2  4831.25
881  4899.75
880.8  4873.25
880.6  4855.75
880.4  4836.5
880.2  4843.5
880  4877
879.8  4853.5
879.6  4811
879.4  4854
879.2  4866.5
879  4802.25
878.8  4867.75
878.6  4879.75
878.4  4909.25
878.2  4855
878  4843
877.8  4839.25
877.6  4840.5
877.4  4861.75
877.2  4829.5
877  4853.5
876.8  4845.25
876.6  4833.5
876.4  4882.5
876.2  4856.25
876  4896.25
875.8  4736.25
875.6  4845.75
875.4  4840.5
875.2  4805.5
875  4898
874.8  4848
874.6  4803
874.4  4773
874.2  4840.25
874  4880.75
873.8  4884.5
873.6  4883
873.4  4846.5
873.2  4863.5
873  4925.25
872.8  4832.75
872.6  4776.25
872.4  4839.75
872.2  4789
872  4860.25
871.8  4772.25
871.6  4867.75
871.4  4862.75
871.2  4789.25
871  4830.5
870.8  4802.5
870.6  4834.5
870.4  4784.5
870.2  4807.5
870  4780.25
869.8  4876
869.6  4736.5
869.4  4792.25
869.2  4833.75
869  4867.25
868.8  4822.5
868.6  4766.25
868.4  4785.75
868.2  4842.25
868  4800
867.8  4819.75
867.6  4822.75
867.4  4818.5
867.2  4830
867  4778
866.8  4744.75
866.6  4852.75
866.4  4767.75
866.2  4784.25
866  4792.25
865.8  4843.25
865.6  4877.75
865.4  4799.5
865.2  4914.25
865  4841.75
864.8  4831.75
864.6  4852.5
864.4  4815.75
864.2  4832.25
864  4864.25
863.8  4841
863.6  4869.75
863.4  4827.75
863.2  4776
863  4763.75
862.8  4842.75
862.6  4846.25
862.4  4816.25
862.2  4834.5
862  4772.5
861.8  4825.5
861.6  4775.25
861.4  4833.75
861.2  4791
861  4795
860.8  4822.25
860.6  4801
860.4  4818.25
860.2  4800.5
860  4822
859.8  4787.75
859.6  4829
859.4  4836
859.2  4855
859  4840.75
858.8  4843.5
858.6  4833.25
858.4  4784.25
858.2  4850
858  4824.5
857.8  4805.5
857.6  4771.75
857.4  4813.5
857.2  4795
857  4860.25
856.8  4771.75
856.6  4769.75
856.4  4819.25
856.2  4872.5
856  4836
855.8  4786
855.6  4831.25
855.4  4815.5
855.2  4817.25
855  4794.5
854.8  4904
854.6  4816.5
854.4  4807.5
854.2  4774.75
854  4850
853.8  4890.75
853.6  4819.75
853.4  4758.75
853.2  4778.5
853  4823.75
852.8  4778
852.6  4764.25
852.4  4742.25
852.2  4827
852  4802.25
851.8  4793.25
851.6  4864.25
851.4  4814.75
851.2  4834.25
851  4894.75
850.8  4834.5
850.6  4770.75
850.4  4792.5
850.2  4851.75
850  4770.25
849.8  4806.25
849.6  4831.75
849.4  4816.5
849.2  4807.5
849  4830.25
848.8  4806.25
848.6  4859
848.4  4809.25
848.2  4858.5
848  4844.75
847.8  4805
847.6  4876.75
847.4  4842
847.2  4818
847  4819
846.8  4813.25
846.6  4821.75
846.4  4784.5
846.2  4822.75
846  4786.5
845.8  4820
845.6  4826
845.4  4835
845.2  4851
845  4800
844.8  4769
844.6  4833.75
844.4  4802.25
844.2  4827.5
844  4845.25
843.8  4806.75
843.6  4869.5
843.4  4773
843.2  4825.75
843  4842
842.8  4857.75
842.6  4819
842.4  4780.75
842.2  4828
842  4846.25
841.8  4791
841.6  4784.25
841.4  4744
841.2  4801.75
841  4818.5
840.8  4826.25
840.6  4762.75
840.4  4825.75
840.2  4768.5
840  4758
839.8  4745.25
839.6  4777
839.4  4800.25
839.2  4792.75
839  4785.5
838.8  4756.25
838.6  4831.5
838.4  4769.25
838.2  4812.5
838  4756.5
837.8  4816.5
837.6  4788.25
837.4  4795.25
837.2  4808
837  4819
836.8  4811.5
836.6  4785.25
836.4  4787.25
836.2  4739
836  4771
835.8  4884
835.6  4878.75
835.4  4861.75
835.2  4888.75
835  4859.75
834.8  4848
834.6  4804.25
834.4  4804
834.2  4817
834  4801
833.8  4880.75
833.6  4829.5
833.4  4869.25
833.2  4832
833  4862.75
832.8  4845.5
832.6  4847
832.4  4894
832.2  4894.75
832  4843
831.8  4936.5
831.6  4862
831.4  4883.75
831.2  4925
831  4909.25
830.8  4924.5
830.6  4867.75
830.4  4976
830.2  5026.75
830  4929.25
829.8  4928.75
829.6  4953
829.4  5024
829.2  4924.25
829  5005.25
828.8  4937.5
828.6  4960.75
828.4  5030
828.2  4979.25
828  4933.25
827.8  4939.75
827.6  4937.75
827.4  4967.5
827.2  4953.75
827  4912.25
826.8  4929.25
826.6  4879.5
826.4  5018.5
826.2  4924.25
826  4855.5
825.8  4830.75
825.6  4886.5
825.4  4869
825.2  4882.25
825  4908.75
824.8  4835.5
824.6  4835.25
824.4  4834.75
824.2  4874
824  4827.25
823.8  4854.25
823.6  4854.25
823.4  4823.5
823.2  4774.75
823  4815.5
822.8  4791
822.6  4756.25
822.4  4782.25
822.2  4783
822  4754.5
821.8  4769.75
821.6  4803
821.4  4829
821.2  4809.5
821  4784.25
820.8  4787.75
820.6  4735
820.4  4724.75
820.2  4752
820  4699.5
819.8  4704.25
819.6  4687
819.4  4766.25
819.2  4737.75
819  4681.5
818.8  4751.25
818.6  4692.5
818.4  4759.5
818.2  4684.25
818  4736.25
817.8  4701
817.6  4647.25
817.4  4722.5
817.2  4689.5
817  4671.5
816.8  4665
816.6  4701.5
816.4  4727.25
816.2  4651.25
816  4721.25
815.8  4712.75
815.6  4750.5
815.4  4728
815.2  4650
815  4632
814.8  4585
814.6  4643.5
814.4  4649.5
814.2  4602.75
814  4669.75
813.8  4597.75
813.6  4643
813.4  4712
813.2  4607
813  4664
812.8  4611.5
812.6  4561.25
812.4  4666.75
812.2  4599.5
812  4598.5
811.8  4623.25
811.6  4673.75
811.4  4635.25
811.2  4622.25
811  4626.75
810.8  4656.75
810.6  4648.75
810.4  4659
810.2  4647.75
810  4657.75
809.8  4618.5
809.6  4636.5
809.4  4632
809.2  4599.75
809  4654.75
808.8  4582
808.6  4687.75
808.4  4596.25
808.2  4629.25
808  4627.5
807.8  4585.75
807.6  4625.5
807.4  4622
807.2  4612
807  4645.5
806.8  4680.25
806.6  4609
806.4  4589.75
806.2  4584.25
806  4655.5
805.8  4626.25
805.6  4594.5
805.4  4616.75
805.2  4603
805  4566.25
804.8  4547
804.6  4635
804.4  4654.75
804.2  4576.5
804  4602
803.8  4632.5
803.6  4680.75
803.4  4667.5
803.2  4543.25
803  4608.75
802.8  4578.25
802.6  4666.5
802.4  4579.75
802.2  4580
802  4548.5
801.8  4582
801.6  4602.5
801.4  4562.75
801.2  4623
801  4586.5
800.8  4594
800.6  4632
800.4  4592
800.2  4655.75
800  4588.5
799.8  4603.75
799.6  4646.5
799.4  4640.5
799.2  4558.75
799  4520.25
798.8  4611.25
798.6  4654.25
798.4  4569
798.2  4657.25
798  4639.25
797.8  4668.75
797.6  4719
797.4  4686
797.2  4788
797  4782.25
796.8  4827
796.6  4794
796.4  4817.75
796.2  4720.25
796  4783.25
795.8  4635.75
795.6  4641
795.4  4601.25
795.2  4618.5
795  4641
794.8  4580.25
794.6  4601.25
794.4  4583.5
794.2  4553.25
794  4579.75
793.8  4571.5
793.6  4534
793.4  4578.5
793.2  4610.75
793  4545.25
792.8  4621.75
792.6  4558.75
792.4  4539.25
792.2  4557.25
792  4536.25
791.8  4558
791.6  4536
791.4  4604
791.2  4557.25
791  4542.25
790.8  4612
790.6  4580.5
790.4  4478.75
790.2  4545.25
790  4555.25
789.8  4560.5
789.6  4605
789.4  4561.75
789.2  4561.75
789  4604
788.8  4594
788.6  4573.5
788.4  4496.5
788.2  4528.75
788  4569.25
787.8  4557.25
787.6  4569.75
787.4  4567.75
787.2  4621.5
787  4575
786.8  4578
786.6  4583.25
786.4  4500.5
786.2  4603
786  4545.75
785.8  4578
785.6  4627.75
785.4  4565
785.2  4551.25
785  4594.25
784.8  4595.25
784.6  4591.25
784.4  4503.75
784.2  4605.75
784  4522.5
783.8  4577.25
783.6  4597.5
783.4  4589
783.2  4622
783  4649.5
782.8  4701.75
782.6  4718.25
782.4  4752
782.2  4793.25
782  4763.5
781.8  4844
781.6  4856.5
781.4  4878
781.2  4852.25
781  4941.5
780.8  4787
780.6  4880.75
780.4  4771.25
780.2  4680.25
780  4736.5
779.8  4631.5
779.6  4618.5
779.4  4538.25
779.2  4631.25
779  4552.5
778.8  4529
778.6  4558
778.4  4563.25
778.2  4591.25
778  4578.5
777.8  4562
777.6  4566.25
777.4  4526.75
777.2  4502
777  4529.25
776.8  4500
776.6  4563.5
776.4  4571.75
776.2  4537
776  4566
775.8  4550.75
775.6  4520.5
775.4  4532.5
775.2  4530.25
775  4551.25
774.8  4523.75
774.6  4426
774.4  4495.75
774.2  4520.75
774  4580.25
773.8  4487
773.6  4515.25
773.4  4584.25
773.2  4572.75
773  4556.25
772.8  4535.25
772.6  4470.5
772.4  4523.25
772.2  4566.75
772  4536.25
771.8  4535.5
771.6  4591.25
771.4  4513
771.2  4561.5
771  4564.5
770.8  4518.5
770.6  4573
770.4  4543
770.2  4523
770  4584.5
769.8  4458.75
769.6  4565.5
769.4  4560.75
769.2  4534.5
769  4530.25
768.8  4612
768.6  4531
768.4  4487
768.2  4587.5
768  4515
767.8  4578.75
767.6  4440.75
767.4  4556.75
767.2  4489
767  4543
766.8  4508.75
766.6  4483
766.4  4481.75
766.2  4504.5
766  4530.25
765.8  4494.25
765.6  4537.5
765.4  4557
765.2  4521.25
765  4510.75
764.8  4550.25
764.6  4515.75
764.4  4485.5
764.2  4554.25
764  4540
763.8  4591
763.6  4615.75
763.4  4517
763.2  4554.5
763  4549
762.8  4570.5
762.6  4573.5
762.4  4645
762.2  4605.5
762  4554.75
761.8  4557.25
761.6  4629.5
761.4  4585.75
761.2  4585
761  4533
760.8  4519.25
760.6  4647
760.4  4643.5
760.2  4606.25
760  4661
759.8  4647
759.6  4639.75
759.4  4630
759.2  4647.75
759  4627.75
758.8  4626
758.6  4578
758.4  4626.5
758.2  4679
758  4643.75
757.8  4611.25
757.6  4612.75
757.4  4616
757.2  4621.25
757  4750.75
756.8  4629.25
756.6  4615
756.4  4575.25
756.2  4562
756  4556
755.8  4555.5
755.6  4526.75
755.4  4503.5
755.2  4516.5
755  4531.25
754.8  4527.75
754.6  4492.75
754.4  4467.5
754.2  4566
754  4463.5
753.8  4506.25
753.6  4480.5
753.4  4532.25
753.2  4479.75
753  4459.25
752.8  4532
752.6  4472.5
752.4  4472.25
752.2  4490.75
752  4481
751.8  4533.75
751.6  4494
751.4  4480
751.2  4456
751  4503
750.8  4505.25
750.6  4440.75
750.4  4525.75
750.2  4481
750  4442.25
749.8  4454
749.6  4506.75
749.4  4459.5
749.2  4489.75
749  4513
748.8  4474.5
748.6  4511.25
748.4  4493.75
748.2  4442.25
748  4566.75
747.8  4470.5
747.6  4475.25
747.4  4478
747.2  4553.25
747  4507.75
746.8  4532.75
746.6  4480
746.4  4478.5
746.2  4494.5
746  4508.75
745.8  4508.5
745.6  4478.75
745.4  4497
745.2  4469.75
745  4535.75
744.8  4479.5
744.6  4509.75
744.4  4407.5
744.2  4527.25
744  4491.75
743.8  4457.5
743.6  4493.25
743.4  4484.5
743.2  4472.5
743  4508.25
742.8  4497.75
742.6  4536.25
742.4  4474.25
742.2  4467.75
742  4455.25
741.8  4505.75
741.6  4508.75
741.4  4494.75
741.2  4479.75
741  4468.75
740.8  4505.25
740.6  4455.5
740.4  4439
740.2  4492
740  4513.25
739.8  4435
739.6  4463.25
739.4  4544.5
739.2  4474.25
739  4486.5
738.8  4457.25
738.6  4527.75
738.4  4484.5
738.2  4457
738  4450.75
737.8  4531.5
737.6  4426.5
737.4  4487.75
737.2  4415.5
737  4472.5
736.8  4517.5
736.6  4495.5
736.4  4495.75
736.2  4483.75
736  4445.25
735.8  4555.75
735.6  4521.75
735.4  4480.5
735.2  4538
735  4502.25
734.8  4499.25
734.6  4471.5
734.4  4462
734.2  4537
734  4474.75
733.8  4466.25
733.6  4479.5
733.4  4491.5
733.2  4518
733  4458.75
732.8  4452.25
732.6  4470.5
732.4  4518
732.2  4499
732  4496.75
731.8  4441.5
731.6  4515.75
731.4  4516.25
731.2  4490.75
731  4461.75
730.8  4437
730.6  4492.75
730.4  4427.5
730.2  4515.75
730  4498.75
729.8  4522.75
729.6  4508.25
729.4  4465.5
729.2  4466
729  4501.75
728.8  4518.75
728.6  4544.5
728.4  4522.5
728.2  4494
728  4520.75
727.8  4544.75
727.6  4422.25
727.4  4470.75
727.2  4484.75
727  4488
726.8  4529
726.6  4502.5
726.4  4418.5
726.2  4499.5
726  4512
725.8  4444.25
725.6  4498.75
725.4  4433.5
725.2  4526.5
725  4482
724.8  4537.75
724.6  4407
724.4  4570.75
724.2  4462.5
724  4542
723.8  4476
723.6  4516.25
723.4  4507.25
723.2  4507.75
723  4512.75
722.8  4448
722.6  4502.5
722.4  4454.5
722.2  4501.5
722  4542
721.8  4497.25
721.6  4477
721.4  4451.25
721.2  4531.5
721  4527.5
720.8  4540.75
720.6  4576
720.4  4564
720.2  4621.5
720  4546.75
719.8  4591
719.6  4593.75
719.4  4598.5
719.2  4567.75
719  4613.75
718.8  4688.75
718.6  4624.5
718.4  4641.5
718.2  4686.5
718  4629
717.8  4607.5
717.6  4721
717.4  4704
717.2  4707.25
717  4697.5
716.8  4727
716.6  4640
716.4  4688.25
716.2  4609.5
716  4648
715.8  4684.5
715.6  4595.25
715.4  4543.5
715.2  4491.25
715  4532.25
714.8  4477.75
714.6  4473.75
714.4  4418.75
714.2  4431.75
714  4455.5
713.8  4411
713.6  4354.25
713.4  4384
713.2  4434.25
713  4408.25
712.8  4441.5
712.6  4445.75
712.4  4364.25
712.2  4392.75
712  4411.25
711.8  4406.75
711.6  4405.25
711.4  4405
711.2  4357.75
711  4265.5
710.8  4417.75
710.6  4385.25
710.4  4392.5
710.2  4462
710  4345.25
709.8  4490.25
709.6  4431.5
709.4  4377
709.2  4382.25
709  4480.25
708.8  4423.75
708.6  4507.5
708.4  4563.75
708.2  4503.5
708  4599.25
707.8  4672.75
707.6  4587.5
707.4  4738.25
707.2  4881.25
707  4812.75
706.8  4912.75
706.6  4906.25
706.4  5045.75
706.2  5030.5
706  5118.75
705.8  5179.5
705.6  5255.75
705.4  5353.5
705.2  5313.5
705  5392
704.8  5407.25
704.6  5513.5
704.4  5426.25
704.2  5404.75
704  5284
703.8  5252.25
703.6  5256.5
703.4  5116.75
703.2  5009
703  4896
702.8  4926.75
702.6  4772.25
702.4  4744.75
702.2  4647.25
702  4537.5
701.8  4606.5
701.6  4520.75
701.4  4463
701.2  4419.25
701  4461.5
700.8  4410.75
700.6  4415
700.4  4373.5
700.2  4291.25
700  4376.25
699.8  4250
699.6  4255.25
699.4  4277
699.2  4246.5
699  4275.25
698.8  4208
698.6  4257.25
698.4  4247
698.2  4178
698  4308.5
697.8  4252.5
697.6  4278.25
697.4  4208.75
697.2  4200.5
697  4227
696.8  4216.75
696.6  4211.5
696.4  4159.75
696.2  4298.75
696  4239.5
695.8  4226.25
695.6  4243
695.4  4268
695.2  4226.25
695  4209
694.8  4288.75
694.6  4258
694.4  4270.5
694.2  4233
694  4251.25
693.8  4192.75
693.6  4239.25
693.4  4280.75
693.2  4255
693  4257
692.8  4177.5
692.6  4225.25
692.4  4270
692.2  4174
692  4166.75
691.8  4303.75
691.6  4236.75
691.4  4230.75
691.2  4182.75
691  4190.5
690.8  4175.5
690.6  4157
690.4  4234.5
690.2  4223
690  4201.25
689.8  4163.5
689.6  4162.25
689.4  4156.5
689.2  4134.5
689  4170.25
688.8  4185.25
688.6  4150.25
688.4  4104.25
688.2  4180
688  4166.75
687.8  4161.75
687.6  4179.5
687.4  4219
687.2  4188.25
687  4172.5
686.8  4211.5
686.6  4187
686.4  4184
686.2  4239.25
686  4189.5
685.8  4192
685.6  4164
685.4  4168.5
685.2  4182.25
685  4149.75
684.8  4147.75
684.6  4180.75
684.4  4143.75
684.2  4092.5
684  4096.75
683.8  4125.25
683.6  4168
683.4  4156
683.2  4129.75
683  4075.75
682.8  4094.25
682.6  4125.25
682.4  4040.25
682.2  4082.25
682  4085.5
681.8  4096.25
681.6  4084.5
681.4  4074.75
681.2  4060
681  4062.75
680.8  4011.75
680.6  4026.75
680.4  3999.5
680.2  3999.5
680  4030.5
679.8  4054.75
679.6  4042.25
679.4  3992
679.2  4039.5
679  3982.75
678.8  4039
678.6  4046.75
678.4  4049.25
678.2  4056.5
678  4057.75
677.8  4031
677.6  3929.5
677.4  3977.75
677.2  3961
677  3900
676.8  3946
676.6  3887.5
676.4  3962.25
676.2  3943
676  3941.25
675.8  3941.75
675.6  3856.75
675.4  3854.75
675.2  3862
675  3906
674.8  3899
674.6  3916
674.4  3902.5
674.2  3894.75
674  3865
673.8  3883.75
673.6  3870.25
673.4  3961.75
673.2  3899.25
673  3915
672.8  3904
672.6  3925.5
672.4  3965.5
672.2  4027.25
672  3963
671.8  4001.25
671.6  4042
671.4  4130.25
671.2  4094.25
671  4102.25
670.8  4134
670.6  4162
670.4  4240
670.2  4312.25
670  4393.5
669.8  4426.75
669.6  4562
669.4  4654.25
669.2  4715.75
669  4843.25
668.8  4965
668.6  5090
668.4  5240
668.2  5360.5
668  5503.5
667.8  5617.5
667.6  5669.5
667.4  5868
667.2  5996.75
667  6026
666.8  6038.5
666.6  6062.5
666.4  5998
666.2  5907.5
666  5796.25
665.8  5718.25
665.6  5517.5
665.4  5384.75
665.2  5294.5
665  5026.75
664.8  4896.75
664.6  4766.5
664.4  4649
664.2  4562.75
664  4408
663.8  4370.5
663.6  4231.5
663.4  4158
663.2  4094
663  4086.75
662.8  4022.25
662.6  3949.75
662.4  3969
662.2  3900.75
662  3854
661.8  3825.75
661.6  3754.5
661.4  3752.25
661.2  3729
661  3759.5
660.8  3746.25
660.6  3768.25
660.4  3692.25
660.2  3646.25
660  3676
659.8  3648.75
659.6  3679
659.4  3702
659.2  3679
659  3667.25
658.8  3675.75
658.6  3682.5
658.4  3751.25
658.2  3670.25
658  3718.5
657.8  3674.5
657.6  3726.25
657.4  3745.5
657.2  3720.75
657  3718.75
656.8  3742.75
656.6  3694.75
656.4  3732.75
656.2  3660
656  3754.75
655.8  3691
655.6  3735.75
655.4  3625
655.2  3621
655  3673.75
654.8  3660.5
654.6  3616.5
654.4  3588.5
654.2  3568.25
654  3590.75
653.8  3633.25
653.6  3614.5
653.4  3573.75
653.2  3599.5
653  3540.5
652.8  3530.75
652.6  3478.75
652.4  3436.75
652.2  3445.25
652  3410.25
651.8  3459
651.6  3460.5
651.4  3404.75
651.2  3485.25
651  3453
650.8  3420.75
650.6  3377.75
650.4  3365.25
650.2  3484
650  3462.5
649.8  3427.75
649.6  3404
649.4  3467
649.2  3402
649  3446.5
648.8  3404.75
648.6  3380.5
648.4  3400.75
648.2  3385.5
648  3321.25
647.8  3442.5
647.6  3429
647.4  3415
647.2  3398.25
647  3420
646.8  3446
646.6  3452.75
646.4  3421.75
646.2  3414.5
646  3416
645.8  3358.5
645.6  3371.25
645.4  3398.5
645.2  3396.75
645  3404
644.8  3385
644.6  3371.75
644.4  3413.5
644.2  3402
644  3388.75
643.8  3386
643.6  3387.75
643.4  3423.25
643.2  3371.75
643  3307.25
642.8  3333.25
642.6  3363.75
642.4  3349.5
642.2  3376.75
642  3396.5
641.8  3387.75
641.6  3344.5
641.4  3339.25
641.2  3363.5
641  3382.25
640.8  3422.75
640.6  3334
640.4  3401.75
640.2  3328.5
640  3310.75
639.8  3377.75
639.6  3390.25
639.4  3396
639.2  3381.5
639  3401.75
638.8  3364.25
638.6  3330.75
638.4  3378.5
638.2  3359.75
638  3375.5
637.8  3383
637.6  3347.25
637.4  3399
637.2  3379.5
637  3372.75
636.8  3352.25
636.6  3352
636.4  3366.25
636.2  3396.25
636  3367
635.8  3394
635.6  3380.5
635.4  3388
635.2  3336.5
635  3386.75
634.8  3386
634.6  3351.25
634.4  3385.25
634.2  3372.5
634  3373
633.8  3352.25
633.6  3381.5
633.4  3386.25
633.2  3426.25
633  3313
632.8  3346
632.6  3383.25
632.4  3367.5
632.2  3365.25
632  3378.75
631.8  3381.5
631.6  3295
631.4  3359.5
631.2  3310.75
631  3352
630.8  3330
630.6  3316.75
630.4  3348
630.2  3330
630  3359.25
629.8  3360
629.6  3331.75
629.4  3411.25
629.2  3370.25
629  3338.5
628.8  3359.25
628.6  3356
628.4  3267.25
628.2  3391.75
628  3338
627.8  3346
627.6  3352
627.4  3318
627.2  3367
627  3376.25
626.8  3340.5
626.6  3340.25
626.4  3348.25
626.2  3345
626  3323.5
625.8  3363.25
625.6  3358
625.4  3354.5
625.2  3385
625  3317.5
624.8  3391.25
624.6  3393.25
624.4  3350.5
624.2  3349
624  3366.25
623.8  3322.25
623.6  3339.75
623.4  3321.75
623.2  3394.25
623  3318
622.8  3373.5
622.6  3344.75
622.4  3311.25
622.2  3352.25
622  3371
621.8  3314.75
621.6  3342.25
621.4  3387.75
621.2  3355
621  3336
620.8  3297.5
620.6  3370.25
620.4  3391.25
620.2  3326.25
620  3366.25
619.8  3345.75
619.6  3332.5
619.4  3304.25
619.2  3359.25
619  3337.75
618.8  3353
618.6  3314.5
618.4  3366.75
618.2  3353
618  3354.75
617.8  3280
617.6  3345.25
617.4  3350.25
617.2  3337.75
617  3403
616.8  3384.75
616.6  3292.25
616.4  3343.25
616.2  3259.25
616  3367.75
615.8  3395.75
615.6  3363.25
615.4  3320.25
615.2  3360
615  3352.5
614.8  3355.75
614.6  3371
614.4  3332
614.2  3366.5
614  3413.25
613.8  3364.25
613.6  3364.25
613.4  3316.5
613.2  3337.75
613  3334.5
612.8  3353
612.6  3373.75
612.4  3333.5
612.2  3348.25
612  3339.5
611.8  3362.75
611.6  3363.25
611.4  3374
611.2  3370.75
611  3346.75
610.8  3364.25
610.6  3344.25
610.4  3328.75
610.2  3369.25
610  3361
609.8  3338.25
609.6  3350.75
609.4  3312
609.2  3343.25
609  3371.5
608.8  3333.75
608.6  3343.75
608.4  3335.75
608.2  3369
608  3347.5
607.8  3335.75
607.6  3307.25
607.4  3386.5
607.2  3328.75
607  3379
606.8  3430.25
606.6  3294.5
606.4  3345.25
606.2  3369.5
606  3349.5
605.8  3331
605.6  3355
605.4  3310
605.2  3345.5
605  3352.75
604.8  3315.25
604.6  3405.75
604.4  3300.5
604.2  3354.25
604  3314
603.8  3326
603.6  3374
603.4  3350.75
603.2  3416
603  3379.25
602.8  3417.25
602.6  3376.5
602.4  3414.75
602.2  3388.5
602  3326.5
601.8  3363.5
601.6  3395.5
601.4  3317.5
601.2  3317.25
601  3405
600.8  3319.25
600.6  3340.75
600.4  3393.75
600.2  3364.25
600  3375.5
599.8  3411.75
599.6  3363.5
599.4  3353
599.2  3371.25
599  3373.75
598.8  3428
598.6  3413
598.4  3359.75
598.2  3395.5
598  3456
597.8  3390
597.6  3387.75
597.4  3343.5
597.2  3388.5
597  3408
596.8  3392.5
596.6  3390
596.4  3356
596.2  3405.75
596  3322.75
595.8  3409.25
595.6  3378.25
595.4  3379.5
595.2  3347.25
595  3324
594.8  3360.25
594.6  3369.5
594.4  3401.5
594.2  3352.5
594  3349.5
593.8  3367.75
593.6  3327.75
593.4  3346
593.2  3406
593  3413.25
592.8  3389.5
592.6  3361.25
592.4  3411.75
592.2  3307.5
592  3355
591.8  3391.5
591.6  3349
591.4  3358.25
591.2  3380.75
591  3368.25
590.8  3325.5
590.6  3381
590.4  3343.5
590.2  3414.75
590  3365.75
589.8  3326
589.6  3337.5
589.4  3366.5
589.2  3357
589  3332.75
588.8  3309.5
588.6  3355.5
588.4  3371.25
588.2  3360.75
588  3339.75
587.8  3384.25
587.6  3353.5
587.4  3382.25
587.2  3390.5
587  3340
586.8  3331.5
586.6  3345.25
586.4  3392.5
586.2  3338
586  3299.75
585.8  3409.25
585.6  3368
585.4  3342.5
585.2  3380.75
585  3406.75
584.8  3329.75
584.6  3353.5
584.4  3345.25
584.2  3374.75
584  3350.25
583.8  3389.5
583.6  3359.25
583.4  3324
583.2  3381
583  3360.5
582.8  3366.25
582.6  3351.75
582.4  3394.25
582.2  3404
582  3335.5
581.8  3360.75
581.6  3345.5
581.4  3333
581.2  3394.5
581  3277.25
580.8  3330.5
580.6  3375
580.4  3368.25
580.2  3339.5
580  3373.75
579.8  3345.25
579.6  3328
579.4  3335.5
579.2  3360.5
579  3368
578.8  3333.75
578.6  3341.75
578.4  3365.5
578.2  3338.5
578  3380.5
577.8  3347
577.6  3299.5
577.4  3407.5
577.2  3383
577  3331.25
576.8  3393.25
576.6  3369.75
576.4  3312.75
576.2  3380.5
576  3416
575.8  3411.25
575.6  3349.25
575.4  3430
575.2  3443.75
575  3378
574.8  3367.75
574.6  3360.75
574.4  3372
574.2  3361.25
574  3379.75
573.8  3327.25
573.6  3381.5
573.4  3377.75
573.2  3356.75
573  3371.5
572.8  3359.25
572.6  3380.5
572.4  3411
572.2  3377.25
572  3397.25
571.8  3331.25
571.6  3373.75
571.4  3394
571.2  3366.75
571  3370.5
570.8  3381.75
570.6  3378.25
570.4  3358.25
570.2  3302.25
570  3359.5
569.8  3378.5
569.6  3440.25
569.4  3378
569.2  3394.25
569  3362.25
568.8  3412.5
568.6  3410
568.4  3414.5
568.2  3422.5
568  3394.5
567.8  3385
567.6  3341.25
567.4  3436.5
567.2  3396
567  3351.5
566.8  3386
566.6  3384.25
566.4  3397
566.2  3392.25
566  3375
565.8  3398.75
565.6  3366.75
565.4  3356
565.2  3425
565  3364.75
564.8  3346.25
564.6  3360.5
564.4  3402.5
564.2  3373.25
564  3390
563.8  3393.5
563.6  3415
563.4  3375.75
563.2  3445.75
563  3435
562.8  3374
562.6  3383.5
562.4  3322.5
562.2  3377.75
562  3441.5
561.8  3362
561.6  3356.25
561.4  3392.25
561.2  3366.25
561  3356
560.8  3364.25
560.6  3325.25
560.4  3369
560.2  3386.5
560  3389
559.8  3358
559.6  3418.75
559.4  3369
559.2  3391.25
559  3395.25
558.8  3388.5
558.6  3433.5
558.4  3420.25
558.2  3425
558  3414.75
557.8  3396.75
557.6  3359.25
557.4  3439.75
557.2  3403.25
557  3420.75
556.8  3428
556.6  3420.5
556.4  3422.5
556.2  3410.5
556  3385.5
555.8  3376.75
555.6  3441
555.4  3428
555.2  3418.75
555  3405.5
554.8  3438.5
554.6  3453.25
554.4  3460.25
554.2  3379.5
554  3444.75
553.8  3430.75
553.6  3431.5
553.4  3418
553.2  3461.25
553  3488.25
552.8  3423
552.6  3425.75
552.4  3477.75
552.2  3438
552  3435.5
551.8  3451.5
551.6  3454.75
551.4  3485.75
551.2  3431
551  3434.75
550.8  3455.75
550.6  3504
550.4  3478.75
550.2  3448.25
550  3465.25
549.8  3386.75
549.6  3466.25
549.4  3456.5
549.2  3433.25
549  3465.25
548.8  3458.25
548.6  3473
548.4  3508
548.2  3456.25
548  3463.25
547.8  3425.75
547.6  3454
547.4  3459.5
547.2  3465.25
547  3420.5
546.8  3391.5
546.6  3389.5
546.4  3438.5
546.2  3404.75
546  3368.75
545.8  3381.75
545.6  3360.5
545.4  3367
545.2  3339.5
545  3274.5
544.8  3327
544.6  3229.5
544.4  3304.5
544.2  3247.5
544  3303
543.8  3273.5
543.6  3287
543.4  3245.75
543.2  3258.75
543  3215
542.8  3295.5
542.6  3200.5
542.4  3247.5
542.2  3235.75
542  3265
541.8  3225.5
541.6  3232
541.4  3196.75
541.2  3218.75
541  3240.5
540.8  3272.25
540.6  3161.25
540.4  3189
540.2  3191.25
540  3218.25
539.8  3178.5
539.6  3145
539.4  3193.5
539.2  3240.25
539  3179.75
538.8  3194.5
538.6  3194.25
538.4  3189.25
538.2  3215.5
538  3204.75
537.8  3193
537.6  3179.5
537.4  3209.25
537.2  3247.75
537  3214.75
536.8  3191.75
536.6  3210
536.4  3144.75
536.2  3211
536  3228.25
535.8  3208
535.6  3262.25
535.4  3258.25
535.2  3252.75
535  3320.25
534.8  3348.5
534.6  3431
534.4  3485.5
534.2  3584
534  3705
533.8  3777
533.6  3892.75
533.4  3908.5
533.2  4089
533  4109
532.8  4311.5
532.6  4407.75
532.4  4527
532.2  4700.25
532  4888.25
531.8  5084.5
531.6  5196.5
531.4  5374
531.2  5531.75
531  5516
530.8  5448.75
530.6  5295
530.4  4984
530.2  4685.5
530  4403.5
529.8  4062.25
529.6  3782
529.4  3625
529.2  3356
529  3317.75
528.8  3189.75
528.6  3194.5
528.4  3128.25
528.2  3108.75
528  3105
527.8  3082.25
527.6  3056
527.4  3097
527.2  3083
527  3074.5
526.8  3082.5
526.6  3085.5
526.4  3029.5
526.2  3076.25
526  3098
525.8  3028.5
525.6  3008.75
525.4  3007
525.2  3089.25
525  3061.25
524.8  3034.5
524.6  3070.25
524.4  3059.75
524.2  3064.25
524  3134.5
523.8  3093
523.6  3096.5
523.4  3161.25
523.2  3059.25
523  3098.5
522.8  3115.5
522.6  3196
522.4  3135.25
522.2  3157.75
522  3235.5
521.8  3176.25
521.6  3255
521.4  3297
521.2  3217.25
521  3233.25
520.8  3227.25
520.6  3184.5
520.4  3185.5
520.2  3224.25
520  3162.75
519.8  3140
519.6  3093.25
519.4  3109.5
519.2  3137.75
519  3123.5
518.8  3060
518.6  3085.5
518.4  3112.75
518.2  3128.5
518  3006.5
517.8  3058.25
517.6  3101
517.4  3039.25
517.2  3042.5
517  3052.5
516.8  3019.75
516.6  2990.5
516.4  3006.75
516.2  3041.25
516  3025.75
515.8  2987
515.6  3000.75
515.4  3032.25
515.2  2999.25
515  3062.75
514.8  3028.75
514.6  3065.75
514.4  3037.75
514.2  3017
514  3056.5
513.8  2988.5
513.6  3017.75
513.4  3049
513.2  3031
513  3017.5
512.8  3041.25
512.6  3035
512.4  3020
512.2  2999.75
512  3041
511.8  3012.5
511.6  3038.75
511.4  3006
511.2  3110.25
511  3058.5
510.8  3070.5
510.6  3042
510.4  2983
510.2  3005
510  3049
509.8  3038.5
509.6  3097.25
509.4  3059.5
509.2  3048.5
509  2994.75
508.8  3054.25
508.6  3053.5
508.4  3054.25
508.2  3040.25
508  3022.25
507.8  3055
507.6  3031
507.4  3006.25
507.2  3018.25
507  3034.75
506.8  3021.5
506.6  3013.5
506.4  3005
506.2  3047.25
506  3047.75
505.8  2999
505.6  3040.25
505.4  3015
505.2  2996
505  3012.25
504.8  3037
504.6  3041
504.4  2975.5
504.2  2969.75
504  2954.75
503.8  2955
503.6  3006
503.4  3011.5
503.2  2928.75
503  2984.5
502.8  2993.25
502.6  2978.5
502.4  3009.25
502.2  3073.25
502  3008
501.8  2965.25
501.6  3010.25
501.4  3009.75
501.2  2990.25
501  2981.25
500.8  3002.25
500.6  2990.75
500.4  3015.75
500.2  2960.5
500  3014.75
499.8  2993
499.6  2974.75
499.4  3020.75
499.2  3036.5
499  2998
498.8  3109.25
498.6  3104.75
498.4  3061.5
498.2  3143.5
498  3237.5
497.8  3215
497.6  3252.5
497.4  3319.25
497.2  3339.5
497  3444.5
496.8  3545.25
496.6  3555
496.4  3588.25
496.2  3701.25
496  3637.25
495.8  3734.5
495.6  3673.5
495.4  3634.25
495.2  3588.5
495  3411
494.8  3376.5
494.6  3226
494.4  3142.75
494.2  3095.5
494  3026.5
493.8  2968.25
493.6  2947.5
493.4  2935.5
493.2  2894.5
493  2849
492.8  2914.5
492.6  2910.75
492.4  2876
492.2  2913.25
492  2900.5
491.8  2848.75
491.6  2902.75
491.4  2871.25
491.2  2895.5
491  2927
490.8  2895.5
490.6  2940.75
490.4  2970.5
490.2  2969
490  2957.5
489.8  3048.75
489.6  3041
489.4  3084
489.2  3191
489  3285
488.8  3362.25
488.6  3468.5
488.4  3565
488.2  3684.25
488  3732.25
487.8  3862.75
487.6  3879.75
487.4  3993.25
487.2  3888.75
487  3891
486.8  3774.5
486.6  3661.5
486.4  3535
486.2  3411.75
486  3244
485.8  3169
485.6  3145.5
485.4  2989.25
485.2  2958.75
485  2898.75
484.8  2967.25
484.6  2932
484.4  2925.25
484.2  2857.25
484  2900.25
483.8  2882
483.6  2859
483.4  2912.25
483.2  2862
483  2889
482.8  2841.5
482.6  2885.25
482.4  2885
482.2  2915.5
482  2905.25
481.8  2861.75
481.6  2906
481.4  2862.75
481.2  2851
481  2847.25
480.8  2893.75
480.6  2895.25
480.4  2830.25
480.2  2868.75
480  2896
479.8  2827.25
479.6  2856.25
479.4  2912.25
479.2  2892.25
479  2902.25
478.8  2867
478.6  2885.25
478.4  2897.25
478.2  2902
478  2933.25
477.8  2922.75
477.6  2938.75
477.4  2984.25
477.2  2947.75
477  2947.25
476.8  2979.5
476.6  2945.75
476.4  2924
476.2  2962
476  2943.75
475.8  2928
475.6  2993.25
475.4  2941.75
475.2  2974.75
475  2974.5
474.8  2959.5
474.6  2908.75
474.4  2901.25
474.2  2971.25
474  2973
473.8  2954.5
473.6  2961.75
473.4  2963.25
473.2  2954.25
473  3023.5
472.8  2944.25
472.6  2982.25
472.4  3004
472.2  2972.25
472  2963.25
471.8  2989
471.6  2976
471.4  2967.25
471.2  3000.5
471  2984.5
470.8  2948
470.6  3014.75
470.4  2923.75
470.2  2943.5
470  2977.25
469.8  2959.5
469.6  3013.25
469.4  2991.75
469.2  2963
469  2984.5
468.8  2950
468.6  2950
468.4  2914.5
468.2  2931.25
468  2904.75
467.8  2848
467.6  2953.5
467.4  2909.5
467.2  2892.25
467  2875.5
466.8  2933
466.6  2899
466.4  2885
466.2  2885.25
466  2896.75
465.8  2884.5
465.6  2851.5
465.4  2902.25
465.2  2900
465  2869.75
464.8  2872.5
464.6  2888.25
464.4  2876
464.2  2855.5
464  2879.75
463.8  2883
463.6  2798.5
463.4  2821
463.2  2777.75
463  2758.5
462.8  2732.75
462.6  2746.5
462.4  2744.75
462.2  2752.5
462  2671.25
461.8  2618.75
461.6  2637
461.4  2575.5
461.2  2587
461  2560.25
460.8  2549.5
460.6  2525.25
460.4  2549
460.2  2533.25
460  2485
459.8  2497
459.6  2458.25
459.4  2411.75
459.2  2399.5
459  2402.5
458.8  2347.25
458.6  2395.25
458.4  2350.5
458.2  2360.5
458  2356.25
457.8  2338.5
457.6  2329
457.4  2321.25
457.2  2359.5
457  2393.25
456.8  2407.5
456.6  2403
456.4  2473.25
456.2  2491.5
456  2526
455.8  2803
455.6  2746.5
455.4  2931
455.2  3090.25
455  3366
454.8  3698
454.6  4076.5
454.4  4585.5
454.2  5089
454  5609.25
453.8  6080.75
453.6  6714
453.4  7322.75
453.2  7594.5
453  7824.75
452.8  7878.25
452.6  7579
452.4  7054.75
452.2  6343.25
452  5534.75
451.8  4671.25
451.6  3855.25
451.4  3217.5
451.2  2792.25
451  2435.75
450.8  2256
450.6  2099.5
450.4  2013.5
450.2  1951.5
450  1911
449.8  1910.25
449.6  1880.5
449.4  1895
449.2  1956
449  1955
448.8  2047
448.6  2148.25
448.4  2317
448.2  2433
448  2624.5
447.8  2842.75
447.6  3181.5
447.4  3640.5
447.2  4143.75
447  4738.5
446.8  5504.5
446.6  6217.75
446.4  7064
446.2  7970.25
446  8719.5
445.8  9370
445.6  9946.75
445.4  10155.75
445.2  10121.25
445  9691.75
444.8  8972.75
444.6  7858.75
444.4  6621.25
444.2  5373.5
444  4437.25
443.8  3628.25
443.6  3080
443.4  2675
443.2  2429.5
443  2284.25
442.8  2197
442.6  2035
442.4  1950.5
442.2  1840.5
442  1818.5
441.8  1707.5
441.6  1645.5
441.4  1602.25
441.2  1587.75
441  1579.5
440.8  1516.25
440.6  1515
440.4  1473
440.2  1425
440  1415.75
439.8  1344.75
439.6  1318.5
439.4  1334.75
439.2  1282.75
439  1246.25
438.8  1260.75
438.6  1279.25
438.4  1232.75
438.2  1261
438  1262.25
437.8  1292.75
437.6  1316.25
437.4  1331.5
437.2  1358
437  1414
436.8  1452.5
436.6  1527.5
436.4  1633.5
436.2  1649.25
436  1679.25
435.8  1796.25
435.6  1778.25
435.4  1800
435.2  1748
435  1705.75
434.8  1654.5
434.6  1629.25
434.4  1570.5
434.2  1537.25
434  1500.75
433.8  1480.25
433.6  1471.25
433.4  1414.75
433.2  1460.5
433  1350
432.8  1329.25
432.6  1261.25
432.4  1212.25
432.2  1192.75
432  1160.75
431.8  1165.5
431.6  1122.75
431.4  1106
431.2  1079
431  1121.75
430.8  1085.75
430.6  1069
430.4  1078
430.2  1063.25
430  1038
429.8  1093.75
429.6  1059.5
429.4  1076.75
429.2  1048
429  1053
428.8  1037.5
428.6  1059.25
428.4  1015.25
428.2  1057.5
428  1060.25
427.8  1070.5
427.6  1067
427.4  1290
427.2  1029.25
427  1078.25
426.8  1064.25
426.6  1039
426.4  1049.5
426.2  1042.5
426  1058.5
425.8  1075.75
425.6  1025.25
425.4  1079
425.2  1052.75
425  1042
424.8  1058
424.6  1056
424.4  1027.75
424.2  1042.25
424  1053.25
423.8  1053.75
423.6  1053.25
423.4  1048.75
423.2  1037.25
423  1012
422.8  1054.25
422.6  1049
422.4  1053
422.2  1001.25
422  1039.5
421.8  1021.25
421.6  1027
421.4  1048.75
421.2  1041.25
421  1052
420.8  1038
420.6  1039
420.4  1014.25
420.2  1004.75
420  1039.75
419.8  1008
419.6  1001
419.4  1012.75
419.2  1016.75
419  1003.5
418.8  985.75
418.6  992
418.4  1010.5
418.2  1013
418  963.75
417.8  1010
417.6  997.25
417.4  1022.5
417.2  988.25
417  1010.5
416.8  992
416.6  1010.5
416.4  1017.75
416.2  1024
416  1009
415.8  1024.75
415.6  973.25
415.4  988.75
415.2  1019.25
415  1011.5
414.8  979.25
414.6  1013.25
414.4  1015.25
414.2  1000.25
414  979.75
413.8  994.5
413.6  956.5
413.4  996.5
413.2  979
413  974.5
412.8  1018.75
412.6  998.75
412.4  977.5
412.2  964.75
412  1007.25
411.8  1014.25
411.6  983.75
411.4  994.5
411.2  997
411  1009
410.8  989.25
410.6  965.75
410.4  990.25
410.2  990.25
410  987.75
409.8  991.5
409.6  993.5
409.4  978.5
409.2  1003.75
409  993.25
408.8  971.25
408.6  977
408.4  983
408.2  971
408  1002.75
407.8  976.75
407.6  994
407.4  1008.75
407.2  986.25
407  988.5
406.8  1005
406.6  982
406.4  962.5
406.2  998
406  1005.75
405.8  977.5
405.6  994.25
405.4  957
405.2  989.25
405  983.5
404.8  997.75
404.6  1019
404.4  1025.25
404.2  987.75
404  1004
403.8  970.25
403.6  1012.5
403.4  987
403.2  1026.25
403  1003.25
402.8  995.75
402.6  1022.75
402.4  990
402.2  1009.5
402  1024
401.8  1032.5
401.6  1029.75
401.4  1061.75
401.2  1082.25
401  1079
400.8  1046.75
400.6  1070.25
400.4  1056
400.2  1068.75
400  1056.25
399.8  1010
399.6  1050.25
399.4  1034.5
399.2  1018.25
399  1015.5
398.8  994.75
398.6  976.25
398.4  1005.75
398.2  977.75
398  1009
397.8  1006.5
397.6  982.5
397.4  985.25
397.2  974.75
397  1004.75
396.8  958.25
396.6  949.25
396.4  987.5
396.2  964.25
396  978.25
395.8  960
395.6  969.25
395.4  984.5
395.2  959.75
395  947.75
394.8  959.75
394.6  949.5
394.4  975.5
394.2  980
394  951.5
393.8  957.25
393.6  953
393.4  971.5
393.2  949.5
393  965.5
392.8  929.75
392.6  1033.25
392.4  969
392.2  984.5
392  958.25
391.8  976
391.6  968.25
391.4  981
391.2  961.5
391  971.25
390.8  988.25
390.6  950.5
390.4  958.25
390.2  959
390  982
389.8  974
389.6  972.5
389.4  954
389.2  955.5
389  951.75
388.8  943.25
388.6  969.75
388.4  959.75
388.2  971
388  954
387.8  954.75
387.6  954.5
387.4  960.5
387.2  990.25
387  973
386.8  979.25
386.6  970.5
386.4  953.25
386.2  965.75
386  970.75
385.8  960.25
385.6  979.25
385.4  954.25
385.2  966
385  956.5
384.8  1007.75
384.6  965.75
384.4  1003.25
384.2  972.25
384  963.5
383.8  995.5
383.6  1017.75
383.4  985.75
383.2  988.75
383  1005.5
382.8  992.5
382.6  999.25
382.4  990.25
382.2  1003
382  983.5
381.8  988.5
381.6  994
381.4  1003.5
381.2  993.75
381  1011.75
380.8  974.5
380.6  980.5
380.4  979.75
380.2  991.75
380  933.75
379.8  964.5
379.6  964.5
379.4  953
379.2  990.25
379  986.75
378.8  963.5
378.6  968.25
378.4  953.25
378.2  948.75
378  990.5
377.8  1006.5
377.6  987.75
377.4  988.75
377.2  958
377  979.25
376.8  1011
376.6  956.75
376.4  990
376.2  973.75
376  991.25
375.8  999.5
375.6  998
375.4  1003
375.2  1032.5
375  981.75
374.8  968.75
374.6  1009.5
374.4  980.75
374.2  1000.75
374  1004.25
373.8  1004.5
373.6  977.5
373.4  960.75
373.2  953.25
373  984.5
372.8  965
372.6  916
372.4  939.75
372.2  934.25
372  914.5
371.8  927.25
371.6  893
371.4  922.75
371.2  894.75
371  893.5
370.8  936
370.6  902.25
370.4  929.75
370.2  908.5
370  891.75
369.8  895.75
369.6  912.75
369.4  902.75
369.2  899.5
369  912.75
368.8  917.75
368.6  908.5
368.4  912.75
368.2  892
368  903.5
367.8  913
367.6  917.5
367.4  884.25
367.2  909.5
367  877.75
366.8  909.75
366.6  901.25
366.4  880.25
366.2  880.5
366  882.25
365.8  913
365.6  898
365.4  910.5
365.2  909.25
365  891.75
364.8  887
364.6  877.75
364.4  901.75
364.2  932.25
364  921.75
363.8  891.75
363.6  883.5
363.4  882
363.2  891
363  887.5
362.8  920.5
362.6  902.75
362.4  887.75
362.2  899.75
362  871.5
361.8  890.5
361.6  890
361.4  923.5
361.2  918
361  898.25
360.8  877.25
360.6  878.25
360.4  898.5
360.2  896
360  905.75
359.8  925.25
359.6  890.5
359.4  905.25
359.2  904.75
359  894.5
358.8  929.75
358.6  889.25
358.4  921.25
358.2  876.5
358  889.5
357.8  888.5
357.6  857.25
357.4  908.25
357.2  909.75
357  896.75
356.8  914.25
356.6  874
356.4  916.5
356.2  911.5
356  888.25
355.8  906.5
355.6  892.5
355.4  866.75
355.2  910.5
355  895.25
354.8  897.5
354.6  875
354.4  904.5
354.2  891
354  876
353.8  921.25
353.6  899.5
353.4  904.5
353.2  890
353  920
352.8  911
352.6  909.75
352.4  885
352.2  885.5
352  905.25
351.8  908.75
351.6  911.5
351.4  913
351.2  899
351  918.5
350.8  924.25
350.6  893.5
350.4  900.75
350.2  915
350  919
349.8  873.5
349.6  920.75
349.4  904.25
349.2  934.25
349  896
348.8  889.5
348.6  916
348.4  889.75
348.2  903.5
348  915.75
347.8  890.25
347.6  925.25
347.4  911.75
347.2  900.5
347  904.25
346.8  918.25
346.6  910.25
346.4  894
346.2  887
346  889.5
345.8  930.25
345.6  908.5
345.4  914.5
345.2  902.75
345  914.75
344.8  919.5
344.6  917.25
344.4  903
344.2  891.75
344  908
343.8  915.5
343.6  932.75
343.4  926.25
343.2  883.75
343  924.5
342.8  894
342.6  881.25
342.4  933
342.2  911.75
342  874.5
341.8  903.5
341.6  932.75
341.4  913.25
341.2  912
341  922.75
340.8  881
340.6  895
340.4  897.5
340.2  896.5
340  903.75
339.8  900.75
339.6  896.5
339.4  900.5
339.2  903
339  900.25
338.8  912.25
338.6  882.5
338.4  892.25
338.2  881.25
338  917
337.8  910.5
337.6  893.75
337.4  892.5
337.2  901.5
337  902
336.8  907
336.6  896.5
336.4  885
336.2  907.5
336  899.25
335.8  919.25
335.6  911.25
335.4  936.5
335.2  901.5
335  938.25
334.8  909.75
334.6  946.25
334.4  945.75
334.2  894
334  888
333.8  898.25
333.6  905.5
333.4  876.75
333.2  896
333  931.75
332.8  906.5
332.6  895.5
332.4  908.75
332.2  912
332  886.75
331.8  905
331.6  931.5
331.4  916.25
331.2  934
331  895.75
330.8  905.25
330.6  949.75
330.4  903.25
330.2  901.5
330  915.25
329.8  943
329.6  930
329.4  915.75
329.2  935.5
329  911.5
328.8  918.25
328.6  923.25
328.4  901.25
328.2  899.75
328  906.5
327.8  887.25
327.6  892.25
327.4  914.75
327.2  900
327  904.5
326.8  928
326.6  909.25
326.4  908.75
326.2  917.25
326  915.75
325.8  889.75
325.6  898.5
325.4  886.75
325.2  942.5
325  934.75
324.8  925.5
324.6  918.75
324.4  916.25
324.2  901.25
324  918
323.8  891
323.6  929
323.4  933
323.2  917
323  934.75
322.8  909
322.6  936.5
322.4  922.75
322.2  935.75
322  909.75
321.8  897.25
321.6  913.5
321.4  912.25
321.2  913.25
321  891.5
320.8  898.25
320.6  923
320.4  913.25
320.2  921
320  909.5
319.8  919.5
319.6  910.25
319.4  933.5
319.2  911.25
319  928.25
318.8  933
318.6  938.75
318.4  939.5
318.2  923.25
318  929.25
317.8  914.25
317.6  923.75
317.4  931.5
317.2  910.25
317  922.75
316.8  937.5
316.6  938.5
316.4  932
316.2  923.75
316  920.5
315.8  930
315.6  894.75
315.4  927.25
315.2  893.25
315  949.75
314.8  929.5
314.6  950.25
314.4  926.25
314.2  917.75
314  919.75
313.8  927.5
313.6  952.5
313.4  927.5
313.2  919.5
313  927
312.8  905.25
312.6  903.75
312.4  911.25
312.2  921.75
312  929
311.8  944
311.6  898.25
311.4  919.75
311.2  932.5
311  929.75
310.8  919.75
310.6  932.25
310.4  899.75
310.2  960.75
310  927.25
309.8  911.25
309.6  927.25
309.4  942
309.2  909.25
309  950.5
308.8  901.75
308.6  920.75
308.4  916.25
308.2  953.75
308  932.25
307.8  947.75
307.6  935.75
307.4  942
307.2  916.75
307  946
306.8  936
306.6  921
306.4  914.5
306.2  924.25
306  926.25
305.8  945.25
305.6  944
305.4  920.25
305.2  933.25
305  927.5
304.8  908.75
304.6  912.25
304.4  903.5
304.2  905
304  899.75
303.8  908
303.6  919.25
303.4  929.75
303.2  908
303  904.25
302.8  892
302.6  954.75
302.4  912
302.2  908.5
302  913.75
301.8  906.25
301.6  910.25
301.4  888.25
301.2  912.75
301  905.75
300.8  931.75
300.6  911
300.4  913
300.2  914.25
300  891.75
299.8  933.75
299.6  913
299.4  902
299.2  890.25
299  901.75
298.8  899.25
298.6  922.5
298.4  950.5
298.2  911.25
298  941.25
297.8  907.25
297.6  920
297.4  938
297.2  940.5
297  907.5
296.8  921
296.6  914
296.4  914.25
296.2  925.5
296  896.75
295.8  913.25
295.6  931.75
295.4  894.5
295.2  916
295  928.75
294.8  930.75
294.6  918.5
294.4  915.25
294.2  914.5
294  912.5
293.8  931.25
293.6  905.75
293.4  911.5
293.2  958.25
293  923.5
292.8  924.25
292.6  923.25
292.4  918.25
292.2  913.5
292  911.25
291.8  916.25
291.6  961.75
291.4  919.75
291.2  1078.5
291  954.5
290.8  930.25
290.6  947.5
290.4  938.25
290.2  948
290  956.5
289.8  990.25
289.6  1000.5
289.4  987.25
289.2  989
289  1037.75
288.8  1043.25
288.6  1057.75
288.4  1053
288.2  1083.75
288  1109.5
287.8  1143
287.6  1143.75
287.4  1185.75
287.2  1230.25
287  1263.25
286.8  1266
286.6  1298.25
286.4  1283.5
286.2  1335.75
286  1308.5
285.8  1338.25
285.6  1278
285.4  1261
285.2  1205.25
285  1147.75
284.8  1100.75
284.6  1047.25
284.4  1040.25
284.2  980.5
284  978
283.8  929.75
283.6  915.5
283.4  918.5
283.2  883.5
283  922.25
282.8  908.25
282.6  884.25
282.4  869
282.2  878.25
282  878.25
281.8  886
281.6  884.25
281.4  898.25
281.2  910.25
281  878.25
280.8  911.5
280.6  886.5
280.4  885.75
280.2  887.75
280  885.5
279.8  918
279.6  899.75
279.4  907.5
279.2  887.25
279  890.25
278.8  897.75
278.6  895
278.4  896.75
278.2  903
278  918.75
277.8  903.25
277.6  934
277.4  904.75
277.2  921
277  921.5
276.8  903.5
276.6  912.5
276.4  898.25
276.2  917.75
276  869.5
275.8  917.25
275.6  878.25
275.4  915
275.2  899.75
275  930.25
274.8  1074.75
274.6  883.75
274.4  906.5
274.2  907.5
274  914.25
273.8  886.75
273.6  880.75
273.4  911
273.2  859.25
273  889.5
272.8  898.5
272.6  890.5
272.4  869.75
272.2  886.75
272  891.75
271.8  882.75
271.6  893
271.4  921
271.2  889
271  931.25
270.8  914
270.6  923
270.4  900
270.2  928.75
270  897.75
269.8  881.75
269.6  921.25
269.4  903
269.2  898.75
269  860.75
268.8  874.25
268.6  896.75
268.4  861.75
268.2  905
268  875.75
267.8  865.5
267.6  899.5
267.4  871.75
267.2  909
267  905.75
266.8  877.25
266.6  874
266.4  875.25
266.2  887.75
266  907.5
265.8  879.25
265.6  904
265.4  882.75
265.2  903.5
265  908.5
264.8  893.25
264.6  873.25
264.4  895.5
264.2  891
264  891
263.8  900.5
263.6  878.75
263.4  862.75
263.2  871.25
263  847
262.8  847.5
262.6  869
262.4  873
262.2  861.5
262  852.5
261.8  875.25
261.6  885.5
261.4  880
261.2  853.75
261  887.75
260.8  886
260.6  852
260.4  877.25
260.2  902.25
260  880.5
259.8  890
259.6  876.25
259.4  865
259.2  879.25
259  886
258.8  871.5
258.6  856.25
258.4  877.75
258.2  895.5
258  877.5
257.8  901.5
257.6  928
257.4  897
257.2  883
257  881.75
256.8  864.5
256.6  907.25
256.4  876.75
256.2  867
256  840
255.8  872.5
255.6  887.75
255.4  884.75
255.2  891.25
255  887.75
254.8  909.5
254.6  892.75
254.4  890.5
254.2  865.5
254  918.5
253.8  897.75
253.6  889.75
253.4  873.75
253.2  892
253  891.75
252.8  888.25
252.6  913.5
252.4  882
252.2  902.75
252  900.25
251.8  911.25
251.6  889
251.4  880.25
251.2  900.25
251  886.25
250.8  866.75
250.6  898
250.4  891.5
250.2  887.75
250  879.5
249.8  900
249.6  884
249.4  873.75
249.2  897.5
249  907.5
248.8  890.5
248.6  860.25
248.4  902.25
248.2  893.75
248  910
247.8  917.5
247.6  904.75
247.4  891.5
247.2  916.75
247  870.5
246.8  881.75
246.6  871
246.4  881
246.2  881
246  869
245.8  886.25
245.6  866
245.4  873
245.2  904.25
245  883
244.8  886.5
244.6  905.75
244.4  898
244.2  871.75
244  897.5
243.8  867.25
243.6  888.25
243.4  892.5
243.2  887.25
243  872.5
242.8  915
242.6  868.25
242.4  894.75
242.2  897.75
242  914
241.8  883.75
241.6  881.75
241.4  914.25
241.2  913.25
241  882.5
240.8  881.25
240.6  905
240.4  888
240.2  898.25
240  895.25
239.8  859.75
239.6  865.5
239.4  899.25
239.2  887.5
239  885.25
238.8  883.5
238.6  892.75
238.4  869
238.2  897.25
238  895
237.8  882.75
237.6  868
237.4  914.75
237.2  895.5
237  874.75
236.8  890.75
236.6  873
236.4  898.5
236.2  884.25
236  897.25
235.8  872.25
235.6  868.25
235.4  897.75
235.2  883.25
235  898.75
234.8  888.25
234.6  896
234.4  884.5
234.2  895.75
234  873.25
233.8  911.5
233.6  879.25
233.4  868
233.2  881.75
233  898.25
232.8  874.75
232.6  865.75
232.4  879.5
232.2  896.5
232  908
231.8  890.75
231.6  903.5
231.4  901.25
231.2  894
231  872.25
230.8  887.75
230.6  895
230.4  872.25
230.2  888.5
230  910.25
229.8  898.75
229.6  903.25
229.4  891.25
229.2  905.75
229  872
228.8  881.25
228.6  1133.25
228.4  896.5
228.2  900.75
228  897.75
227.8  888
227.6  892.25
227.4  901.25
227.2  905.5
227  905.25
226.8  881.5
226.6  874
226.4  888
226.2  883.5
226  876.25
225.8  890.25
225.6  895.75
225.4  855
225.2  875.5
225  905.75
224.8  873.75
224.6  892.75
224.4  884.25
224.2  876.25
224  877.75
223.8  864.5
223.6  856
223.4  863.5
223.2  864.25
223  864.5
222.8  868.75
222.6  863.75
222.4  888.25
222.2  868.5
222  859.25
221.8  862
221.6  880
221.4  864.25
221.2  891.25
221  869.25
220.8  861
220.6  884.75
220.4  879
220.2  864.75
220  874.75
219.8  887.5
219.6  843.5
219.4  882
219.2  859.75
219  874.5
218.8  877.5
218.6  893.25
218.4  892.5
218.2  868
218  870
217.8  863.5
217.6  875
217.4  889.25
217.2  864.5
217  871.25
216.8  863.5
216.6  882.75
216.4  858.75
216.2  880.25
216  861
215.8  855.25
215.6  897.75
215.4  839.5
215.2  873.25
215  877.5
214.8  880.25
214.6  862.25
214.4  906.5
214.2  882.75
214  878.25
213.8  891
213.6  861
213.4  883.75
213.2  837.75
213  875.75
212.8  848.5
212.6  865.5
212.4  842.5
212.2  850
212  860
211.8  863.25
211.6  884.25
211.4  825.75
211.2  845.75
211  878
210.8  819.25
210.6  831.75
210.4  875.75
210.2  853
210  865.5
209.8  845.5
209.6  851
209.4  866.25
209.2  857
209  840.25
208.8  854
208.6  868.25
208.4  849.5
208.2  841.75
208  861
207.8  844.5
207.6  841.75
207.4  874.5
207.2  865.5
207  861
206.8  857.75
206.6  872.25
206.4  851.75
206.2  848.5
206  870
205.8  852
205.6  869.25
205.4  871.75
205.2  845.5
205  876.5
204.8  867
204.6  858
204.4  866.5
204.2  878
204  865.75
203.8  876.75
203.6  868.25
203.4  850
203.2  884.25
203  862
202.8  867
202.6  869.25
202.4  865
202.2  881.75
202  892.25
201.8  861
201.6  905.5
201.4  889
201.2  887
201  890.75
200.8  875
200.6  882.25
200.4  892
200.2  910.75
200  899
199.8  934.5
199.6  900
199.4  889.75
199.2  897
199  891.5
198.8  873.5
198.6  876.25
198.4  892
198.2  884.25
198  859
197.8  879.25
197.6  857.25
197.4  862.75
197.2  883.5
197  840.75
196.8  872.5
196.6  851
196.4  856.5
196.2  852.5
196  877.25
195.8  851.75
195.6  889.5
195.4  865.5
195.2  850.25
195  842.75
194.8  828.5
194.6  854.25
194.4  870.5
194.2  865.25
194  860
193.8  854.5
193.6  871.5
193.4  866.5
193.2  860
193  890.25
192.8  887.5
192.6  878.5
192.4  867.5
192.2  869.75
192  869.75
191.8  893.75
191.6  861.75
191.4  879.25
191.2  888.75
191  903.75
190.8  891.5
190.6  877.75
190.4  861.25
190.2  838.25
190  881.75
189.8  889.75
189.6  878.5
189.4  890.75
189.2  886.5
189  860.5
188.8  853.75
188.6  862.75
188.4  868.75
188.2  881.75
188  867.5
187.8  871
187.6  845.75
187.4  844
187.2  856
187  864.25
186.8  869.25
186.6  834.5
186.4  863.25
186.2  880.25
186  866.5
185.8  875.25
185.6  862.25
185.4  868.75
185.2  873
185  841
184.8  854.5
184.6  836.25
184.4  870.75
184.2  859
184  874
183.8  949.75
183.6  882.25
183.4  857.25
183.2  878.25
183  879
182.8  870.25
182.6  884
182.4  855
182.2  864.75
182  886.5
181.8  882
181.6  862
181.4  866.25
181.2  891.75
181  865
180.8  860.75
180.6  874.25
180.4  853.5
180.2  890.5
180  855.75
179.8  870.75
179.6  889.5
179.4  874.5
179.2  859.25
179  864.75
178.8  885
178.6  879.75
178.4  883
178.2  882.5
178  876
177.8  865.75
177.6  885.25
177.4  850.75
177.2  886.25
177  884.75
176.8  880.25
176.6  851
176.4  873.5
176.2  835.75
176  838.25
175.8  860.75
175.6  879.75
175.4  858.5
175.2  871.5
175  872
174.8  855.5
174.6  861.25
174.4  884.5
174.2  864.75
174  876.25
173.8  852
173.6  855.5
173.4  859.75
173.2  876
173  892
172.8  864.25
172.6  872
172.4  862.75
172.2  844.75
172  873.75
171.8  873
171.6  887.75
171.4  875.75
171.2  886.5
171  851.25
170.8  859.25
170.6  858.75
170.4  857
170.2  879.25
170  883.75
169.8  880.5
169.6  865.5
169.4  877.25
169.2  879.5
169  910.25
168.8  857.5
168.6  864.75
168.4  851.25
168.2  867
168  853.25
167.8  889.75
167.6  857
167.4  860
167.2  872.25
167  872.5
166.8  893.75
166.6  866.5
166.4  849
166.2  870.25
166  859.5
165.8  873.25
165.6  860.5
165.4  864.5
165.2  874.25
165  891
164.8  868.75
164.6  904.5
164.4  910.75
164.2  894.5
164  875.5
163.8  855.75
163.6  884.5
163.4  882.75
163.2  876.75
163  881.75
162.8  857
162.6  877
162.4  886.5
162.2  878.25
162  851.5
161.8  857.75
161.6  836.75
161.4  864.25
161.2  861
161  870.75
160.8  860.75
160.6  892.75
160.4  865.5
160.2  883.25
160  883.5
159.8  830.5
159.6  857
159.4  887.5
159.2  869.25
159  901
158.8  879
158.6  863
158.4  878.5
158.2  864
158  881.75
157.8  907.25
157.6  868
157.4  908
157.2  885.75
157  881.75
156.8  884.25
156.6  892.5
156.4  892.75
156.2  905
156  894.25
155.8  911.75
155.6  925.75
155.4  876.5
155.2  919.75
155  893.25
154.8  881.5
154.6  903
154.4  897.25
154.2  920.25
154  881
153.8  900.5
153.6  887.5
153.4  899.25
153.2  901.25
153  882.75
152.8  885.25
152.6  890.25
152.4  883.25
152.2  900.5
152  902
151.8  872.5
151.6  883.75
151.4  871
151.2  864.25
151  871.5
150.8  897.75
150.6  858.75
150.4  894.25
150.2  863
150  885.5
149.8  864.25
149.6  876.75
149.4  866
149.2  885.75
149  883.5
148.8  864.5
148.6  862.25
148.4  868.5
148.2  871.25
148  863.5
147.8  893.75
147.6  870.5
147.4  845.5
147.2  889.75
147  892.75
146.8  889.25
146.6  875.25
146.4  887.75
146.2  873.5
146  855.5
145.8  863.25
145.6  878
145.4  903.25
145.2  866.75
145  861.25
144.8  864.25
144.6  883.5
144.4  841.75
144.2  894.75
144  895.75
143.8  905.5
143.6  857.5
143.4  901
143.2  898.5
143  875.5
142.8  866.25
142.6  887.25
142.4  862.5
142.2  868.25
142  900.25
141.8  893
141.6  866
141.4  877.25
141.2  899
141  887.75
140.8  874.5
140.6  891
140.4  885.25
140.2  884.75
140  877
139.8  915
139.6  888
139.4  890
139.2  893
139  920.25
138.8  889.5
138.6  896.75
138.4  883.25
138.2  871.75
138  884.5
137.8  883.25
137.6  946.5
137.4  854.75
137.2  878
137  865.5
136.8  890.75
136.6  862.75
136.4  895.75
136.2  857
136  859.5
135.8  892
135.6  874.5
135.4  902.25
135.2  865.25
135  875.5
134.8  868.75
134.6  869.5
134.4  859.25
134.2  860
134  847
133.8  886.25
133.6  865.75
133.4  868
133.2  864.25
133  864.75
132.8  866.75
132.6  887
132.4  859
132.2  863.5
132  883.5
131.8  874.5
131.6  861.75
131.4  876.5
131.2  862.25
131  872.75
130.8  869
130.6  857.5
130.4  879.5
130.2  889.25
130  875.5
129.8  886
129.6  875.25
129.4  878.75
129.2  887.5
129  878.5
128.8  885.5
128.6  930
128.4  903.75
128.2  903.25
128  906
127.8  893.25
127.6  935.25
127.4  932.5
127.2  925
127  925
126.8  940.75
126.6  944.75
126.4  955.75
126.2  960.5
126  927.75
125.8  976.25
125.6  987
125.4  960.5
125.2  958.5
125  956
124.8  965.25
124.6  995.75
124.4  994
124.2  997.25
124  989
123.8  972
123.6  973
123.4  968.25
123.2  987.75
123  958.25
122.8  945.5
122.6  938.75
122.4  943
122.2  935.5
122  925
121.8  880.75
121.6  892.25
121.4  891
121.2  880.75
121  896.25
120.8  878.5
120.6  891.25
120.4  882.25
120.2  863.75
120  892.5
119.8  872.25
119.6  872
119.4  850.75
119.2  845
119  855.5
118.8  872.25
118.6  843.25
118.4  846.5
118.2  855
118  850.5
117.8  882.5
117.6  869.5
117.4  863.5
117.2  854.25
117  850.75
116.8  874.5
116.6  861.5
116.4  838
116.2  863
116  866
115.8  860.5
115.6  850.25
115.4  858.25
115.2  856.5
115  867.5
114.8  850.5
114.6  859.25
114.4  861
114.2  866.5
114  873.75
113.8  864.75
113.6  853.5
113.4  877.25
113.2  875.75
113  843.5
112.8  837.5
112.6  845.5
112.4  852
112.2  838
112  1075.75
111.8  866.25
111.6  839.5
111.4  847.5
111.2  863.75
111  845.5
110.8  850.75
110.6  821
110.4  829.25
110.2  853.5
110  850.75
109.8  839.75
109.6  890
109.4  833.5
109.2  861
109  873.5
108.8  852
108.6  866.75
108.4  845.5
108.2  894.25
108  866
107.8  859.5
107.6  910.75
107.4  861
107.2  850
107  862.5
106.8  835.25
106.6  846.75
106.4  853
106.2  864.25
106  858.5
105.8  883.5
105.6  871.25
105.4  842.75
105.2  852.75
105  859.5
104.8  875.5
104.6  866
104.4  893.25
104.2  861.75
104  894
103.8  887
103.6  879.75
103.4  876.25
103.2  911.5
103  892
102.8  883.25
102.6  885.5
102.4  893
102.2  871.5
102  875.5
101.8  889.75
101.6  871.5
101.4  862.25
101.2  837.5
101  875.75
100.8  875.75
100.6  918
100.4  855.5
100.2  862
100  867.25
99.8  865.5
99.6  847.25
99.4  981.25
99.2  885.25
99  855
98.8  862
98.6  853.25
98.4  869.75
98.2  873.25
98  862.75
97.8  854.75
97.6  890.25
97.4  879
97.2  856
97  875
96.8  888.75
96.6  881
96.4  868.25
96.2  879
96  873.75
95.8  892.25
95.6  867.75
95.4  869
95.2  877.25
95  880.25
94.8  885.5
94.6  876
94.4  904.5
94.2  895.75
94  895.5
93.8  905
93.6  877.75
93.4  909.25
93.2  912
93  902.25
92.8  893.25
92.6  902.25
92.4  861.5
92.2  928.25
92  888
91.8  898.5
91.6  924.25
91.4  924
91.2  905.5
91  913.5
90.8  942
90.6  938.5
90.4  894
90.2  946
90  904.75
89.8  893.75
89.6  928
89.4  902
89.2  902.25
89  890
88.8  920.5
88.6  896
88.4  904
88.2  915.75
88  889.75
87.8  883.75
87.6  897
87.4  941.75
87.2  892.75
87  896.5
86.8  910.25
86.6  916.25
86.4  954.75
86.2  880.5
86  924
85.8  924
85.6  908.5
85.4  916.25
85.2  921.5
85  906.25
84.8  939.25
84.6  928
84.4  937.75
84.2  929.25
84  908.25
83.8  924.75
83.6  933
83.4  918.25
83.2  911.75
83  912.25
82.8  936
82.6  909.75
82.4  928
82.2  941.5
82  958
81.8  930.5
81.6  925.5
81.4  928.75
81.2  936.75
81  915.5
80.8  955.75
80.6  907.25
80.4  970.5
80.2  948.25
80  949.5
79.8  955.5
79.6  921.25
79.4  940.5
79.2  925
79  946.75
78.8  940
78.6  922.25
78.4  948.25
78.2  930.25
78  924.75
77.8  889.75
77.6  879
77.4  891.75
77.2  900.25
77  884.25
76.8  847
76.6  883
76.4  872.25
76.2  836.5
76  864.75
75.8  867
75.6  845.75
75.4  854
75.2  840.75
75  823.75
74.8  836.25
74.6  794.75
74.4  802.75
74.2  834.75
74  802.25
73.8  795.25
73.6  794.75
73.4  786
73.2  796.25
73  774.75
72.8  792.75
72.6  799.25
72.4  782
72.2  789.5
72  766.25
71.8  765
71.6  763.25
71.4  753.75
71.2  727
71  740.25
70.8  767.25
70.6  745.5
70.4  728.5
70.2  732
70  747.75
69.8  720.5
69.6  746.75
69.4  728.75
69.2  691.75
69  740
68.8  713.25
68.6  710.25
68.4  700.5
68.2  711.5
68  714
67.8  730.75
67.6  713
67.4  696.25
67.2  680
67  683.25
66.8  685.25
66.6  683.25
66.4  684.25
66.2  664
66  713.75
65.8  692.25
65.6  692
65.4  680.5
65.2  679.5
65  699.25
64.8  678.75
64.6  699.25
64.4  655
64.2  657
64  677.5
63.8  660.5
63.6  667.25
63.4  683
63.2  665
63  657.5
62.8  649.5
62.6  677
62.4  674.25
62.2  664.25
62  648
61.8  669.5
61.6  681.25
61.4  664.25
61.2  650.5
61  652.5
60.8  642
60.6  668.75
60.4  658.5
60.2  665.25
60  658.5
59.8  634.5
59.6  647
59.4  657
59.2  648
59  656
58.8  671.5
58.6  641.5
58.4  680.25
58.2  654.75
58  656
57.8  650.25
57.6  641.5
57.4  677.75
57.2  649.75
57  634.5
56.8  637.75
56.6  653
56.4  649.25
56.2  641.5
56  654.25
55.8  645
55.6  644.75
55.4  680.75
55.2  633.25
55  653.75
54.8  647.5
54.6  680.25
54.4  667
54.2  665
54  659
53.8  649.25
53.6  667.75
53.4  656.25
53.2  641.5
53  667.25
52.8  672
52.6  642.5
52.4  644.25
52.2  651.5
52  634
51.8  657.25
51.6  653.25
51.4  670.25
51.2  652.75
51  662.5
50.8  638
50.6  670
50.4  626.5
50.2  644.75
50  642
49.8  657.25
49.6  664.5
49.4  679
49.2  635.5
49  640.25
48.8  644.25
48.6  663.5
48.4  650.5
48.2  645.25
48  644.25
47.8  645.25
47.6  687.5
47.4  663.5
47.2  649.5
47  678.25
46.8  666.25
46.6  649.25
46.4  660
46.2  677.25
46  675
45.8  654.25
45.6  658.25
45.4  671.75
45.2  675
45  683.25
44.8  649.75
44.6  677.75
44.4  671
44.2  687.75
44  692.75
43.8  667
43.6  696.75
43.4  660.75
43.2  660.5
43  675.5
42.8  675.25
42.6  662.25
42.4  684.5
42.2  672.5
42  669.5
41.8  658
41.6  685.5
41.4  663
41.2  669
41  663
40.8  676.25
40.6  660.25
40.4  675.5
40.2  684.75
40  670
39.8  654.25
39.6  653
39.4  683.75
39.2  674.75
39  663.5
38.8  691.75
38.6  651
38.4  666
38.2  807.5
38  660.25
37.8  669.75
37.6  691.5
37.4  693
37.2  660.75
37  687
36.8  638.25
36.6  673
36.4  686.75
36.2  651.5
36  670.75
35.8  654.75
35.6  667.75
35.4  640.5
35.2  651.25
35  630.5
34.8  669.25
34.6  648.5
34.4  649.5
34.2  642.25
34  621.5
33.8  639.75
33.6  622.5
33.4  646.25
33.2  627.25
33  639
32.8  625.25
32.6  644.5
32.4  607
32.2  648.75
32  614.5
31.8  609
31.6  617.25
31.4  610.5
31.2  629.25
31  604
30.8  638.75
30.6  621
30.4  622.5
30.2  633.75
30  621
29.8  627.5
29.6  657
29.4  648
29.2  648.75
29  658.75
28.8  695.5
28.6  692
28.4  707.25
28.2  703.25
28  734.75
27.8  753
27.6  780
27.4  744.25
27.2  777.25
27  758.75
26.8  787.25
26.6  758.25
26.4  719.5
26.2  721.25
26  688.75
25.8  666.25
25.6  688.75
25.4  643.5
25.2  645.25
25  629.25
24.8  623.5
24.6  637.25
24.4  644
24.2  630.5
24  650
23.8  638.75
23.6  628.5
23.4  652.5
23.2  635.75
23  659.5
22.8  669.5
22.6  677
22.4  657.5
22.2  680
22  692.75
21.8  703
21.6  731.5
21.4  760.5
21.2  826.5
21  837.75
20.8  948.5
20.6  1059.75
20.4  1144.75
20.2  1220.25
20  1374.25
19.8  1524
19.6  1670.75
19.4  1785.75
19.2  1878.75
19  1981.75
18.8  1945.5
18.6  1905.5
18.4  1854
18.2  1740.75
18  1595.5
17.8  1383.75
17.6  1230
17.4  1058.5
17.2  921.75
17  846.25
16.8  739.5
16.6  646
16.4  621.75
16.2  557.25
16  553.75
15.8  517.75
15.6  490
15.4  506.75
15.2  491
15  485.75
14.8  476.25
14.6  480.25
14.4  469.5
14.2  464
14  461
13.8  475.75
13.6  461
13.4  475
13.2  458
13  451.5
12.8  463.5
12.6  456.75
12.4  452.75
12.2  450.25
12  463
11.8  475.75
11.6  465.5
11.4  481.25
11.2  474.25
11  489
10.8  507.25
10.6  508.25
10.4  507.5
10.2  521
10  524.75
9.8  539.75
9.6  563.25
9.4  557
9.2  587
9  585
8.8  583.5
8.6  567.25
8.4  586.25
8.2  591.5
8  575.5
7.8  546.5
7.6  530.75
7.4  557.5
7.2  563.5
7  525.5
6.8  522.75
6.6  524.25
6.4  512.25
6.2  520.25
6  520.75
5.8  487
5.6  505.5
5.4  502
5.2  487.25
5  466.5
4.8  469.25
4.6  468.75
4.4  466.5
4.2  451
4  425.75
3.8  437.5
3.6  435.25
3.4  422.25
3.2  406.25
3  393.25
2.8  408.75
2.6  392.75
2.4  403
2.2  402.25
2  408
1.8  395.75
1.6  416.5
1.4  386.75
1.2  404.75
1  416.25
0.8  403.25
0.6  408.75
0.4  394.75
0.2  416.5
-2.2737368e-013  392.75
-0.2  403.75
-0.4  394.25
-0.6  400.75
-0.8  408.25
-1  402.75
-1.2  402.5
-1.4  408.25
-1.6  418
-1.8  399
-2  405.25
-2.2  385.25
-2.4  394.5
-2.6  399.5
-2.8  412.5
-3  401.75
-3.2  387.25
-3.4  393.25
-3.6  411.25
-3.8  397.75
-4  384.5
