# Created by:        SpecsLab Prodigy, Version 4.60.2-r85849 
#
# XY-Serializer Export Settings:
#   Comment Prefix:           #
#   Output meta data:         yes
#   Energy Axis:              Binding Energy
#   Count Rate:               Counts per Second
#   Separate Scan Data:       no
#   Separate Channel Data:    no
#   External Channel Data:    yes
#   Transmission Function:    no
#   ErrorBar:                 no
#   Operation Results:        yes
#   Time Zone Format:         UTC
#
# Group:             Spectrum Group
#
# Region:            C1s
# Acquisition Date:  09/08/22 13:44:48 UTC
# Analysis Method:   XPS
# Analyzer:          Phoibos 100 R6
# Analyzer Lens:     LargeArea:1.5kV
# Analyzer Slit:     1:0.2x20\B:open
# Scan Mode:         FixedAnalyzerTransmission
# Curves/Scan:       1
# Values/Curve:      151
# Dwell Time:        0.8
# Excitation Energy: 1486.61
# Binding Energy:    295
# Pass Energy:       30
# Bias Voltage:      90
# Detector Voltage:  2600
# Eff. Workfunction: 4.309
# Source:            X-Ray Dummy
# Comment:           
#
# Cycle: 0
# Number of Scans: 6
#
# Cycle: 0, Curve: 0
# Acquisition Date: 09/08/22 13:44:48 UTC
#
# ColumnLabels: energy counts/s
#
295  959.375
294.9  959.79167
294.8  967.91667
294.7  967.91667
294.6  959.79167
294.5  942.70833
294.4  960.20833
294.3  957.08333
294.2  975
294.1  950.83333
294  972.5
293.9  961.45833
293.8  956.66667
293.7  972.70833
293.6  946.45833
293.5  996.875
293.4  966.66667
293.3  952.70833
293.2  970.20833
293.1  964.79167
293  980.20833
292.9  974.16667
292.8  963.95833
292.7  952.70833
292.6  958.125
292.5  950.20833
292.4  965.41667
292.3  973.75
292.2  976.25
292.1  938.75
292  970.83333
291.9  939.16667
291.8  992.91667
291.7  984.375
291.6  944.58333
291.5  957.08333
291.4  986.66667
291.3  982.08333
291.2  970
291.1  981.25
291  1005.2083
290.9  994.79167
290.8  970.625
290.7  982.08333
290.6  973.54167
290.5  960.83333
290.4  982.70833
290.3  1000.4167
290.2  1015.4167
290.1  1047.5
290  989.375
289.9  1006.25
289.8  1015.2083
289.7  1030.8333
289.6  1010.625
289.5  1044.7917
289.4  1038.3333
289.3  1039.5833
289.2  1075.2083
289.1  1021.875
289  1048.5417
288.9  1063.9583
288.8  1048.75
288.7  1083.9583
288.6  1070.625
288.5  1081.875
288.4  1079.7917
288.3  1105.2083
288.2  1130.2083
288.1  1111.6667
288  1151.25
287.9  1163.5417
287.8  1155.2083
287.7  1170.2083
287.6  1176.6667
287.5  1173.9583
287.4  1213.75
287.3  1215.625
287.2  1251.0417
287.1  1273.5417
287  1305
286.9  1284.5833
286.8  1314.5833
286.7  1309.375
286.6  1315.2083
286.5  1366.6667
286.4  1327.7083
286.3  1352.5
286.2  1354.5833
286.1  1374.5833
286  1372.0833
285.9  1382.5
285.8  1368.9583
285.7  1382.2917
285.6  1362.0833
285.5  1339.7917
285.4  1344.5833
285.3  1296.0417
285.2  1286.0417
285.1  1262.7083
285  1237.0833
284.9  1228.5417
284.8  1183.9583
284.7  1170.2083
284.6  1145.625
284.5  1128.75
284.4  1063.9583
284.3  1064.7917
284.2  1036.0417
284.1  1047.2917
284  1019.5833
283.9  989.79167
283.8  969.79167
283.7  986.25
283.6  999.58333
283.5  974.375
283.4  972.91667
283.3  956.04167
283.2  942.29167
283.1  946.25
283  947.91667
282.9  929.58333
282.8  936.25
282.7  978.75
282.6  947.08333
282.5  954.79167
282.4  941.25
282.3  961.875
282.2  946.66667
282.1  930
282  968.54167
281.9  937.08333
281.8  935.83333
281.7  942.08333
281.6  945.41667
281.5  935.20833
281.4  916.66667
281.3  927.29167
281.2  948.54167
281.1  944.79167
281  920
280.9  934.58333
280.8  929.375
280.7  928.54167
280.6  916.45833
280.5  932.08333
280.4  945.20833
280.3  948.33333
280.2  953.33333
280.1  949.58333
280  918.75

# Region:            overview
# Acquisition Date:  09/08/22 12:57:29 UTC
# Analysis Method:   XPS
# Analyzer:          Phoibos 100 R6
# Analyzer Lens:     MediumArea:1.5kV
# Analyzer Slit:     1:0.2x20\B:open
# Scan Mode:         FixedAnalyzerTransmission
# Curves/Scan:       1
# Values/Curve:      1205
# Dwell Time:        0.2
# Excitation Energy: 1486.61
# Binding Energy:    1200
# Pass Energy:       50
# Bias Voltage:      90
# Detector Voltage:  2600
# Eff. Workfunction: 4.309
# Source:            X-Ray Dummy
# Comment:           
#
# Cycle: 0
# Number of Scans: 1
#
# Cycle: 0, Curve: 0
# Acquisition Date: 09/08/22 12:57:29 UTC
#
# ColumnLabels: energy counts/s
#
1200  9005
1199  8720
1198  8790
1197  8715
1196  9375
1195  9160
1194  9200
1193  9010
1192  8845
1191  9030
1190  9275
1189  8525
1188  8710
1187  8960
1186  8630
1185  8575
1184  8445
1183  8385
1182  8630
1181  8180
1180  8305
1179  8120
1178  8130
1177  8265
1176  8405
1175  8400
1174  8610
1173  7885
1172  8335
1171  7940
1170  8270
1169  8160
1168  8050
1167  8405
1166  7980
1165  7980
1164  7880
1163  7985
1162  7985
1161  7870
1160  7795
1159  8060
1158  7725
1157  7845
1156  7740
1155  7535
1154  7670
1153  7560
1152  8125
1151  8010
1150  7575
1149  7290
1148  7690
1147  7620
1146  7560
1145  7300
1144  7515
1143  7450
1142  7345
1141  7230
1140  7455
1139  7090
1138  7160
1137  7100
1136  6770
1135  6865
1134  6995
1133  6845
1132  7025
1131  6735
1130  6730
1129  6630
1128  6585
1127  6475
1126  6450
1125  6700
1124  6445
1123  6735
1122  6470
1121  6585
1120  6440
1119  6570
1118  6645
1117  6690
1116  6525
1115  6570
1114  6495
1113  6145
1112  6730
1111  6335
1110  6710
1109  6290
1108  6390
1107  6100
1106  6820
1105  6275
1104  6350
1103  6395
1102  6435
1101  6055
1100  6060
1099  6165
1098  6030
1097  6260
1096  6050
1095  6215
1094  6580
1093  6495
1092  6325
1091  6585
1090  6540
1089  6775
1088  7275
1087  7470
1086  8030
1085  7460
1084  7215
1083  6560
1082  6680
1081  6655
1080  6520
1079  6225
1078  5970
1077  5945
1076  5420
1075  5225
1074  4955
1073  4990
1072  5205
1071  5365
1070  4935
1069  4970
1068  5125
1067  4985
1066  4980
1065  5165
1064  5095
1063  4970
1062  4860
1061  4830
1060  4950
1059  4945
1058  4685
1057  4605
1056  4870
1055  4425
1054  4800
1053  4510
1052  4450
1051  4485
1050  4725
1049  4335
1048  4200
1047  4590
1046  4155
1045  4270
1044  4670
1043  4330
1042  4535
1041  4490
1040  4355
1039  4170
1038  4575
1037  4500
1036  4405
1035  4415
1034  4360
1033  4235
1032  4230
1031  4460
1030  4380
1029  4275
1028  4500
1027  4545
1026  4340
1025  4465
1024  4505
1023  4725
1022  4445
1021  4260
1020  4295
1019  4685
1018  4220
1017  4530
1016  4505
1015  4240
1014  4840
1013  4330
1012  4565
1011  4490
1010  4605
1009  4270
1008  4505
1007  4280
1006  4390
1005  4300
1004  4435
1003  4415
1002  4410
1001  4215
1000  4430
999  4350
998  4675
997  4380
996  4305
995  4735
994  4700
993  4515
992  4590
991  4450
990  4270
989  4205
988  4430
987  4360
986  4495
985  4400
984  4035
983  4415
982  4035
981  4485
980  4365
979  4335
978  4645
977  5020
976  4765
975  4735
974  4660
973  4670
972  4580
971  4235
970  4220
969  4215
968  4130
967  4010
966  3925
965  3865
964  3890
963  4035
962  3670
961  4180
960  3730
959  3885
958  4065
957  3815
956  3825
955  3660
954  4010
953  4095
952  3935
951  3940
950  3705
949  3995
948  4065
947  3970
946  3760
945  3710
944  3625
943  3865
942  3805
941  3970
940  3730
939  3755
938  3885
937  4035
936  3790
935  3870
934  3865
933  4175
932  3865
931  3755
930  4005
929  3925
928  4015
927  3855
926  3985
925  3795
924  3880
923  3940
922  3945
921  3715
920  4030
919  3855
918  3825
917  3805
916  3870
915  3745
914  4010
913  3855
912  3925
911  3615
910  3890
909  3990
908  4115
907  3740
906  3965
905  3635
904  3865
903  3850
902  4040
901  3725
900  3965
899  3830
898  4060
897  3915
896  3775
895  3860
894  3960
893  3760
892  3630
891  4195
890  3885
889  3815
888  3885
887  4095
886  3905
885  3955
884  4000
883  4165
882  3945
881  3805
880  3800
879  4185
878  3880
877  3605
876  3860
875  3925
874  3835
873  3730
872  4025
871  3985
870  4045
869  3970
868  4265
867  3890
866  4065
865  4130
864  4085
863  3830
862  3790
861  4095
860  3665
859  4145
858  3955
857  3940
856  4135
855  3845
854  4055
853  3805
852  4205
851  4225
850  4210
849  4150
848  3955
847  3940
846  3950
845  4125
844  3995
843  4005
842  4045
841  3705
840  3925
839  4080
838  3965
837  4280
836  4100
835  4120
834  3910
833  3900
832  3895
831  3985
830  4285
829  4205
828  4190
827  4210
826  4200
825  4135
824  4170
823  4255
822  4095
821  4105
820  3850
819  3780
818  3940
817  4065
816  3915
815  3970
814  3915
813  3795
812  4195
811  3970
810  3900
809  3755
808  4105
807  4065
806  4045
805  3770
804  3895
803  3980
802  4145
801  3995
800  4015
799  3950
798  4055
797  4240
796  4120
795  4105
794  3925
793  3855
792  4160
791  3980
790  4000
789  4060
788  3935
787  3995
786  4065
785  3990
784  4105
783  3655
782  4050
781  4260
780  3950
779  3995
778  4200
777  4000
776  3985
775  3900
774  4135
773  4080
772  4215
771  4130
770  4070
769  3895
768  3960
767  3950
766  3985
765  4150
764  4080
763  3895
762  4095
761  4220
760  4215
759  4105
758  4290
757  4420
756  4355
755  4290
754  3980
753  4215
752  4315
751  4495
750  3970
749  3915
748  4250
747  4200
746  4360
745  4245
744  4100
743  3965
742  3995
741  4110
740  4040
739  4285
738  4240
737  4330
736  3970
735  4455
734  4315
733  4070
732  4125
731  4375
730  4085
729  4090
728  4230
727  4250
726  4160
725  4435
724  4205
723  4245
722  4310
721  4160
720  4560
719  4385
718  4490
717  4325
716  4395
715  4470
714  4530
713  4290
712  4295
711  4265
710  4250
709  4460
708  4425
707  4695
706  5115
705  5530
704  5235
703  5375
702  4645
701  4450
700  4230
699  4330
698  4220
697  4240
696  4150
695  3990
694  4305
693  4290
692  4240
691  4345
690  4030
689  4230
688  4145
687  4125
686  4430
685  4430
684  4025
683  4215
682  4300
681  4155
680  4025
679  4030
678  3965
677  3875
676  3935
675  4115
674  4100
673  4100
672  3950
671  4390
670  4505
669  4865
668  5650
667  6225
666  6275
665  5500
664  4680
663  4515
662  4090
661  3715
660  3715
659  3720
658  3875
657  4010
656  3700
655  3790
654  3940
653  3620
652  3360
651  3440
650  3615
649  3725
648  3290
647  3680
646  3575
645  3410
644  3565
643  3470
642  3795
641  3730
640  3500
639  3535
638  3800
637  3765
636  3360
635  3425
634  3600
633  3680
632  3680
631  3465
630  3700
629  3660
628  3655
627  3590
626  3945
625  3640
624  3825
623  3755
622  3975
621  3505
620  3565
619  3640
618  3680
617  3815
616  3885
615  3550
614  4020
613  3670
612  3750
611  3725
610  3635
609  3775
608  3540
607  3500
606  3675
605  3670
604  3690
603  3535
602  3835
601  3620
600  3745
599  3650
598  4045
597  3740
596  3945
595  3910
594  3930
593  3515
592  3895
591  3775
590  4000
589  3980
588  3870
587  3715
586  3935
585  4015
584  3955
583  3860
582  3990
581  3780
580  3820
579  3860
578  3955
577  3880
576  4025
575  3965
574  3960
573  4025
572  4055
571  4050
570  3865
569  3690
568  3930
567  4000
566  4115
565  4130
564  3990
563  3980
562  3840
561  4040
560  3925
559  3805
558  4180
557  3975
556  3930
555  4335
554  4075
553  4110
552  4190
551  4115
550  4340
549  4190
548  3990
547  4075
546  3815
545  3985
544  3905
543  3765
542  3975
541  3835
540  3905
539  3765
538  3820
537  3810
536  3895
535  4010
534  4230
533  4755
532  5710
531  6805
530  5805
529  4440
528  3875
527  3820
526  3730
525  3520
524  3660
523  3885
522  3950
521  3950
520  3965
519  3715
518  4055
517  3930
516  3720
515  3640
514  3460
513  3940
512  3525
511  3650
510  3955
509  3760
508  3805
507  3715
506  3590
505  3700
504  3540
503  3580
502  3865
501  3685
500  3885
499  3645
498  4120
497  4655
496  4870
495  4475
494  4325
493  3430
492  3930
491  3600
490  3795
489  4195
488  4600
487  5035
486  4500
485  4025
484  3580
483  3565
482  3760
481  3585
480  3840
479  3770
478  3790
477  3840
476  3770
475  3650
474  3945
473  4065
472  3940
471  3845
470  3855
469  3870
468  3750
467  3790
466  3670
465  3885
464  3685
463  3405
462  3735
461  3340
460  3455
459  3335
458  2945
457  2975
456  3350
455  4280
454  6765
453  9945
452  8390
451  4500
450  2860
449  2450
448  3245
447  6050
446  10640
445  13345
444  8080
443  3705
442  2470
441  2170
440  2060
439  1850
438  1715
437  1880
436  2195
435  2275
434  2095
433  1740
432  1645
431  1455
430  1290
429  1280
428  1475
427  1270
426  1495
425  1360
424  1440
423  1340
422  1420
421  1185
420  1350
419  1335
418  1350
417  1375
416  1230
415  1495
414  1275
413  1445
412  1290
411  1445
410  1220
409  1395
408  1380
407  1285
406  1220
405  1300
404  1475
403  1480
402  1330
401  1355
400  1205
399  1420
398  1260
397  1270
396  1160
395  1205
394  1370
393  1280
392  1295
391  1280
390  1220
389  1225
388  1400
387  1225
386  1345
385  1295
384  1220
383  1410
382  1320
381  1470
380  1245
379  1280
378  1320
377  1310
376  1325
375  1390
374  1280
373  1260
372  1270
371  1375
370  1190
369  1200
368  1270
367  1185
366  1230
365  1120
364  1265
363  1255
362  1250
361  1230
360  1090
359  1210
358  1225
357  1260
356  1265
355  1250
354  1230
353  1210
352  1240
351  1210
350  1050
349  1255
348  1275
347  1265
346  1205
345  1315
344  1265
343  1175
342  1230
341  1325
340  1250
339  1210
338  1195
337  1335
336  1350
335  1240
334  1415
333  1130
332  1265
331  1215
330  1295
329  1315
328  1200
327  1280
326  1400
325  1300
324  1270
323  1240
322  1285
321  1255
320  1090
319  1140
318  1275
317  1165
316  1180
315  1315
314  1330
313  1340
312  1325
311  1390
310  1310
309  1180
308  1305
307  1380
306  1455
305  1285
304  1325
303  1140
302  1490
301  1315
300  1285
299  1290
298  1280
297  1215
296  1345
295  1280
294  1320
293  1190
292  1400
291  1495
290  1250
289  1380
288  1625
287  1620
286  1735
285  1665
284  1355
283  1400
282  1290
281  1295
280  1450
279  1400
278  1305
277  1185
276  1335
275  1250
274  1335
273  1385
272  1245
271  1275
270  1175
269  1280
268  1245
267  1320
266  1405
265  1280
264  1310
263  1355
262  1355
261  1375
260  1260
259  1250
258  1245
257  1275
256  1310
255  1280
254  1270
253  1275
252  1160
251  1260
250  1210
249  1400
248  1295
247  1315
246  1125
245  1195
244  1360
243  1235
242  1395
241  1130
240  1405
239  1335
238  1405
237  1415
236  1305
235  1265
234  1385
233  1425
232  1390
231  1255
230  1345
229  1365
228  1280
227  1205
226  1235
225  1405
224  1245
223  1160
222  1145
221  1295
220  1245
219  1300
218  1295
217  1215
216  1165
215  1275
214  1340
213  1335
212  1200
211  1365
210  1385
209  1130
208  1230
207  1130
206  1240
205  1420
204  1425
203  1355
202  1125
201  1240
200  1410
199  1240
198  1265
197  1325
196  1530
195  1380
194  1220
193  1255
192  1345
191  1340
190  1450
189  1330
188  1360
187  1435
186  1290
185  1330
184  1365
183  1295
182  1425
181  1275
180  1295
179  1305
178  1270
177  1415
176  1310
175  1375
174  1350
173  1420
172  1490
171  1300
170  1405
169  1275
168  1260
167  1410
166  1330
165  1325
164  1490
163  1475
162  1245
161  1440
160  1450
159  1315
158  1375
157  1360
156  1320
155  1445
154  1355
153  1420
152  1310
151  1310
150  1390
149  1385
148  1385
147  1265
146  1390
145  1365
144  1330
143  1310
142  1430
141  1550
140  1245
139  1525
138  1435
137  1415
136  1450
135  1365
134  1415
133  1325
132  1255
131  1355
130  1420
129  1575
128  1420
127  1460
126  1495
125  1720
124  1430
123  1495
122  1485
121  1415
120  1300
119  1355
118  1175
117  1590
116  1420
115  1350
114  1455
113  1460
112  1420
111  1580
110  1255
109  1495
108  1455
107  1455
106  1460
105  1465
104  1410
103  1375
102  1445
101  1300
100  1255
99  1495
98  1335
97  1340
96  1375
95  1455
94  1460
93  1485
92  1315
91  1425
90  1505
89  1520
88  1465
87  1440
86  1625
85  1430
84  1300
83  1455
82  1460
81  1465
80  1535
79  1570
78  1455
77  1380
76  1585
75  1485
74  1300
73  1265
72  1190
71  1205
70  1060
69  1260
68  1085
67  1255
66  1140
65  1025
64  1125
63  1080
62  1000
61  1080
60  955
59  940
58  960
57  1075
56  1040
55  925
54  1085
53  1035
52  1010
51  1000
50  1095
49  1030
48  1075
47  1140
46  990
45  1155
44  1135
43  1000
42  1010
41  1105
40  1080
39  1115
38  990
37  1045
36  1115
35  975
34  825
33  905
32  875
31  1050
30  985
29  1185
28  1085
27  1315
26  1185
25  975
24  1080
23  1110
22  1055
21  1375
20  2320
19  2940
18  2675
17  1645
16  930
15  970
14  770
13  735
12  705
11  790
10  875
9  1050
8  960
7  975
6  845
5  775
4  720
3  650
2  595
1  710
-2.2737368e-013  645
-1  735
-2  660
-3  550
-4  665

# Region:            In3d
# Acquisition Date:  09/08/22 13:14:39 UTC
# Analysis Method:   XPS
# Analyzer:          Phoibos 100 R6
# Analyzer Lens:     LargeArea:1.5kV
# Analyzer Slit:     1:0.2x20\B:open
# Scan Mode:         FixedAnalyzerTransmission
# Curves/Scan:       1
# Values/Curve:      231
# Dwell Time:        0.8
# Excitation Energy: 1486.61
# Binding Energy:    460
# Pass Energy:       30
# Bias Voltage:      90
# Detector Voltage:  2600
# Eff. Workfunction: 4.309
# Source:            X-Ray Dummy
# Comment:           
#
# Cycle: 0
# Number of Scans: 2
#
# Cycle: 0, Curve: 0
# Acquisition Date: 09/08/22 13:14:39 UTC
#
# ColumnLabels: energy counts/s
#
460  2675
459.9  2639.375
459.8  2701.875
459.7  2609.375
459.6  2648.75
459.5  2653.75
459.4  2567.5
459.3  2595
459.2  2607.5
459.1  2659.375
459  2512.5
458.9  2560.625
458.8  2629.375
458.7  2565
458.6  2548.75
458.5  2564.375
458.4  2503.75
458.3  2509.375
458.2  2541.875
458.1  2480
458  2501.25
457.9  2539.375
457.8  2493.75
457.7  2542.5
457.6  2414.375
457.5  2592.5
457.4  2480.625
457.3  2490
457.2  2461.875
457.1  2465.625
457  2591.875
456.9  2555
456.8  2441.875
456.7  2517.5
456.6  2539.375
456.5  2468.75
456.4  2656.25
456.3  2613.125
456.2  2666.25
456.1  2711.875
456  2723.75
455.9  2768.125
455.8  2776.875
455.7  2798.75
455.6  2953.75
455.5  2878.75
455.4  3046.25
455.3  3115
455.2  3161.25
455.1  3336.25
455  3450.625
454.9  3594.375
454.8  3788.125
454.7  4010
454.6  4261.25
454.5  4447.5
454.4  4658.75
454.3  4781.875
454.2  4985.625
454.1  5450
454  5850.625
453.9  6095
453.8  6493.125
453.7  6761.875
453.6  7076.25
453.5  7442.5
453.4  7763.75
453.3  8036.875
453.2  8093.75
453.1  8311.25
453  8591.25
452.9  8688.75
452.8  8801.875
452.7  8655
452.6  8651.875
452.5  8308.125
452.4  8043.125
452.3  7620.625
452.2  7138.75
452.1  6831.25
452  6335
451.9  5780.625
451.8  5358.75
451.7  4922.5
451.6  4453.125
451.5  4082.5
451.4  3727.5
451.3  3386.25
451.2  3150
451.1  2881.875
451  2718.125
450.9  2609.375
450.8  2543.75
450.7  2387.5
450.6  2283.75
450.5  2146.25
450.4  2176.25
450.3  2164.375
450.2  2146.875
450.1  2098.75
450  2043.125
449.9  2100.625
449.8  2086.25
449.7  1978.125
449.6  2078.75
449.5  2068.75
449.4  2069.375
449.3  2035.625
449.2  2113.125
449.1  2064.375
449  2178.75
448.9  2108.125
448.8  2142.5
448.7  2214.375
448.6  2253.125
448.5  2286.875
448.4  2309.375
448.3  2442.5
448.2  2481.25
448.1  2565
448  2707.5
447.9  2793.75
447.8  3013.125
447.7  3038.75
447.6  3299.375
447.5  3458.125
447.4  3658.75
447.3  3909.375
447.2  4225
447.1  4540
447  4770
446.9  5070
446.8  5512.5
446.7  5933.75
446.6  6339.375
446.5  6861.25
446.4  7198.125
446.3  7661.875
446.2  8249.375
446.1  8650.625
446  9111.875
445.9  9560
445.8  10010
445.7  10416.875
445.6  10656.25
445.5  10963.125
445.4  11178.75
445.3  11253.125
445.2  11246.25
445.1  11231.25
445  10958.75
444.9  10609.375
444.8  10177.5
444.7  9481.25
444.6  8956.25
444.5  8395.625
444.4  7710.625
444.3  7123.75
444.2  6211.25
444.1  5798.125
444  5110
443.9  4640
443.8  4061.25
443.7  3875
443.6  3581.875
443.5  3265.625
443.4  3086.25
443.3  2862.5
443.2  2762.5
443.1  2589.375
443  2550.625
442.9  2511.25
442.8  2348.125
442.7  2290
442.6  2186.875
442.5  2259.375
442.4  2060.625
442.3  2082.5
442.2  2062.5
442.1  1892.5
442  1889.375
441.9  1895
441.8  1851.875
441.7  1881.875
441.6  1800.625
441.5  1750
441.4  1769.375
441.3  1733.125
441.2  1691.875
441.1  1644.375
441  1705
440.9  1658.75
440.8  1620
440.7  1623.75
440.6  1556.875
440.5  1582.5
440.4  1571.875
440.3  1504.375
440.2  1564.375
440.1  1516.875
440  1488.75
439.9  1445
439.8  1489.375
439.7  1458.75
439.6  1441.25
439.5  1431.875
439.4  1391.875
439.3  1357.5
439.2  1393.75
439.1  1440.625
439  1384.375
438.9  1355
438.8  1330
438.7  1332.5
438.6  1333.125
438.5  1318.75
438.4  1366.25
438.3  1338.75
438.2  1317.5
438.1  1357.5
438  1341.25
437.9  1326.25
437.8  1336.25
437.7  1331.875
437.6  1327.5
437.5  1405.625
437.4  1407.5
437.3  1423.125
437.2  1447.5
437.1  1505
437  1461.875

# Region:            Sn3d
# Acquisition Date:  09/08/22 13:03:59 UTC
# Analysis Method:   XPS
# Analyzer:          Phoibos 100 R6
# Analyzer Lens:     LargeArea:1.5kV
# Analyzer Slit:     1:0.2x20\B:open
# Scan Mode:         FixedAnalyzerTransmission
# Curves/Scan:       1
# Values/Curve:      231
# Dwell Time:        0.8
# Excitation Energy: 1486.61
# Binding Energy:    503
# Pass Energy:       30
# Bias Voltage:      90
# Detector Voltage:  2600
# Eff. Workfunction: 4.309
# Source:            X-Ray Dummy
# Comment:           
#
# Cycle: 0
# Number of Scans: 1
#
# Cycle: 0, Curve: 0
# Acquisition Date: 09/08/22 13:03:59 UTC
#
# ColumnLabels: energy counts/s
#
503  3240
502.9  3238.75
502.8  3037.5
502.7  3158.75
502.6  3166.25
502.5  3210
502.4  3122.5
502.3  3205
502.2  3078.75
502.1  3185
502  3178.75
501.9  3160
501.8  3283.75
501.7  3195
501.6  3222.5
501.5  3142.5
501.4  3183.75
501.3  3233.75
501.2  3240
501.1  3162.5
501  3256.25
500.9  3068.75
500.8  3113.75
500.7  3261.25
500.6  3332.5
500.5  3231.25
500.4  3310
500.3  3102.5
500.2  3047.5
500.1  3171.25
500  3267.5
499.9  3201.25
499.8  3090
499.7  3272.5
499.6  3132.5
499.5  3131.25
499.4  3270
499.3  3152.5
499.2  3203.75
499.1  3245
499  3138.75
498.9  3125
498.8  3255
498.7  3307.5
498.6  3261.25
498.5  3291.25
498.4  3298.75
498.3  3391.25
498.2  3197.5
498.1  3435
498  3342.5
497.9  3381.25
497.8  3302.5
497.7  3405
497.6  3508.75
497.5  3405
497.4  3492.5
497.3  3531.25
497.2  3621.25
497.1  3475
497  3552.5
496.9  3698.75
496.8  3727.5
496.7  3870
496.6  3773.75
496.5  3836.25
496.4  3897.5
496.3  3776.25
496.2  3975
496.1  3868.75
496  3832.5
495.9  3987.5
495.8  4022.5
495.7  3960
495.6  3932.5
495.5  3890
495.4  3817.5
495.3  3921.25
495.2  3872.5
495.1  3831.25
495  3785
494.9  3611.25
494.8  3802.5
494.7  3601.25
494.6  3633.75
494.5  3400
494.4  3370
494.3  3301.25
494.2  3333.75
494.1  3296.25
494  3271.25
493.9  3252.5
493.8  3170
493.7  3185
493.6  3067.5
493.5  3226.25
493.4  3088.75
493.3  2981.25
493.2  3110
493.1  3165
493  3080
492.9  3108.75
492.8  3212.5
492.7  3036.25
492.6  3063.75
492.5  2978.75
492.4  3072.5
492.3  3057.5
492.2  3016.25
492.1  3061.25
492  3036.25
491.9  3035
491.8  3068.75
491.7  3215
491.6  3053.75
491.5  3082.5
491.4  3086.25
491.3  2936.25
491.2  3037.5
491.1  3157.5
491  3061.25
490.9  3140
490.8  3131.25
490.7  3047.5
490.6  3088.75
490.5  2995
490.4  3032.5
490.3  3167.5
490.2  3085
490.1  3091.25
490  3220
489.9  3060
489.8  3238.75
489.7  3101.25
489.6  3228.75
489.5  3247.5
489.4  3321.25
489.3  3328.75
489.2  3398.75
489.1  3373.75
489  3415
488.9  3403.75
488.8  3537.5
488.7  3687.5
488.6  3610
488.5  3636.25
488.4  3836.25
488.3  3808.75
488.2  3955
488.1  4053.75
488  3900
487.9  4108.75
487.8  4115
487.7  4096.25
487.6  4152.5
487.5  4217.5
487.4  4370
487.3  4142.5
487.2  4147.5
487.1  4223.75
487  4177.5
486.9  4327.5
486.8  4146.25
486.7  3975
486.6  3961.25
486.5  4000
486.4  3688.75
486.3  3767.5
486.2  3680
486.1  3798.75
486  3667.5
485.9  3531.25
485.8  3531.25
485.7  3323.75
485.6  3335
485.5  3302.5
485.4  3002.5
485.3  3225
485.2  3233.75
485.1  3232.5
485  3171.25
484.9  3086.25
484.8  3197.5
484.7  3157.5
484.6  3236.25
484.5  3131.25
484.4  3131.25
484.3  3002.5
484.2  3043.75
484.1  3127.5
484  3121.25
483.9  3086.25
483.8  2985
483.7  3087.5
483.6  3016.25
483.5  3047.5
483.4  3208.75
483.3  3162.5
483.2  3103.75
483.1  3047.5
483  3017.5
482.9  2928.75
482.8  3013.75
482.7  3082.5
482.6  3075
482.5  3141.25
482.4  2955
482.3  3020
482.2  2931.25
482.1  3141.25
482  2951.25
481.9  2932.5
481.8  3068.75
481.7  3006.25
481.6  3093.75
481.5  2965
481.4  3011.25
481.3  3033.75
481.2  2992.5
481.1  3048.75
481  2975
480.9  3010
480.8  3156.25
480.7  3023.75
480.6  3068.75
480.5  3076.25
480.4  3028.75
480.3  3060
480.2  3060
480.1  3080
480  3081.25

# Region:            O1s
# Acquisition Date:  09/08/22 13:46:19 UTC
# Analysis Method:   XPS
# Analyzer:          Phoibos 100 R6
# Analyzer Lens:     LargeArea:1.5kV
# Analyzer Slit:     1:0.2x20\B:open
# Scan Mode:         FixedAnalyzerTransmission
# Curves/Scan:       1
# Values/Curve:      111
# Dwell Time:        0.8
# Excitation Energy: 1486.61
# Binding Energy:    538
# Pass Energy:       30
# Bias Voltage:      90
# Detector Voltage:  2600
# Eff. Workfunction: 4.309
# Source:            X-Ray Dummy
# Comment:           
#
# Cycle: 0
# Number of Scans: 6
#
# Cycle: 0, Curve: 0
# Acquisition Date: 09/08/22 13:46:19 UTC
#
# ColumnLabels: energy counts/s
#
538  3398.5417
537.9  3385.2083
537.8  3440.4167
537.7  3342.0833
537.6  3408.3333
537.5  3370
537.4  3385.2083
537.3  3370.2083
537.2  3407.2917
537.1  3411.6667
537  3379.375
536.9  3403.3333
536.8  3382.0833
536.7  3410.4167
536.6  3382.7083
536.5  3427.7083
536.4  3380.4167
536.3  3426.0417
536.2  3416.6667
536.1  3398.3333
536  3428.125
535.9  3426.0417
535.8  3414.1667
535.7  3424.375
535.6  3368.5417
535.5  3465.2083
535.4  3375.4167
535.3  3440.4167
535.2  3484.1667
535.1  3495.8333
535  3496.875
534.9  3509.7917
534.8  3512.2917
534.7  3517.7083
534.6  3593.5417
534.5  3652.5
534.4  3689.1667
534.3  3715.2083
534.2  3751.0417
534.1  3781.6667
534  3847.7083
533.9  3929.7917
533.8  3927.5
533.7  4030.4167
533.6  4022.0833
533.5  4128.3333
533.4  4106.0417
533.3  4202.9167
533.2  4270.625
533.1  4321.6667
533  4412.9167
532.9  4441.6667
532.8  4505
532.7  4622.2917
532.6  4630.625
532.5  4719.1667
532.4  4859.5833
532.3  4909.5833
532.2  4989.5833
532.1  5141.25
532  5169.1667
531.9  5295.625
531.8  5458.9583
531.7  5513.75
531.6  5599.375
531.5  5686.875
531.4  5778.125
531.3  5885.4167
531.2  5884.5833
531.1  5932.0833
531  5943.5417
530.9  5947.9167
530.8  5956.4583
530.7  5858.75
530.6  5788.5417
530.5  5674.5833
530.4  5620
530.3  5474.5833
530.2  5245
530.1  5135
530  4879.1667
529.9  4680.8333
529.8  4443.75
529.7  4308.5417
529.6  4119.7917
529.5  3980.4167
529.4  3877.2917
529.3  3720.8333
529.2  3678.125
529.1  3602.7083
529  3502.0833
528.9  3497.2917
528.8  3440.4167
528.7  3389.5833
528.6  3342.5
528.5  3368.3333
528.4  3373.3333
528.3  3313.125
528.2  3324.1667
528.1  3302.5
528  3285
527.9  3222.5
527.8  3277.5
527.7  3258.5417
527.6  3264.5833
527.5  3275.2083
527.4  3241.25
527.3  3290.625
527.2  3234.7917
527.1  3247.7083
527  3241.0417

# Region:            Si2p
# Acquisition Date:  09/08/22 14:16:55 UTC
# Analysis Method:   XPS
# Analyzer:          Phoibos 100 R6
# Analyzer Lens:     LargeArea:1.5kV
# Analyzer Slit:     1:0.2x20\B:open
# Scan Mode:         FixedAnalyzerTransmission
# Curves/Scan:       1
# Values/Curve:      101
# Dwell Time:        0.8
# Excitation Energy: 1486.61
# Binding Energy:    110
# Pass Energy:       30
# Bias Voltage:      90
# Detector Voltage:  2600
# Eff. Workfunction: 4.309
# Source:            X-Ray Dummy
# Comment:           
#
# Cycle: 0
# Number of Scans: 15
#
# Cycle: 0, Curve: 0
# Acquisition Date: 09/08/22 14:16:55 UTC
#
# ColumnLabels: energy counts/s
#
110  900
109.9  908.5
109.8  891.66667
109.7  889.5
109.6  899
109.5  886.08333
109.4  896
109.3  898.08333
109.2  899.5
109.1  906.5
109  900.08333
108.9  884.41667
108.8  894.83333
108.7  901.25
108.6  899.5
108.5  895.66667
108.4  892.66667
108.3  901.5
108.2  895.66667
108.1  901.5
108  903.33333
107.9  883.91667
107.8  892.5
107.7  897.83333
107.6  889.91667
107.5  894.58333
107.4  896.25
107.3  893.16667
107.2  912.58333
107.1  905.66667
107  896.58333
106.9  897.08333
106.8  916.16667
106.7  918.66667
106.6  892.25
106.5  912.75
106.4  892.5
106.3  905.08333
106.2  896.91667
106.1  902
106  901.25
105.9  901.41667
105.8  900.66667
105.7  904
105.6  898
105.5  909.58333
105.4  892.25
105.3  906
105.2  896.66667
105.1  918.5
105  926.08333
104.9  921.41667
104.8  943.25
104.7  923
104.6  926.91667
104.5  918.66667
104.4  924.83333
104.3  912.91667
104.2  915.5
104.1  930.33333
104  928.5
103.9  944.33333
103.8  913.25
103.7  953.08333
103.6  929.91667
103.5  927.75
103.4  952.08333
103.3  955.08333
103.2  945.16667
103.1  945.83333
103  930.75
102.9  947.83333
102.8  931.25
102.7  943.66667
102.6  932.33333
102.5  925.83333
102.4  934.58333
102.3  945.91667
102.2  967.58333
102.1  924.5
102  932.33333
101.9  920.33333
101.8  931.58333
101.7  905.16667
101.6  909.5
101.5  923
101.4  907.16667
101.3  917.33333
101.2  914.75
101.1  944.25
101  900.83333
100.9  923.75
100.8  912.75
100.7  899.83333
100.6  924.83333
100.5  910.91667
100.4  907
100.3  913.5
100.2  921.66667
100.1  884.58333
100  923.58333

# Region:            N1s
# Acquisition Date:  09/08/22 14:05:14 UTC
# Analysis Method:   XPS
# Analyzer:          Phoibos 100 R6
# Analyzer Lens:     LargeArea:1.5kV
# Analyzer Slit:     1:0.2x20\B:open
# Scan Mode:         FixedAnalyzerTransmission
# Curves/Scan:       1
# Values/Curve:      121
# Dwell Time:        0.8
# Excitation Energy: 1486.61
# Binding Energy:    409
# Pass Energy:       30
# Bias Voltage:      90
# Detector Voltage:  2600
# Eff. Workfunction: 4.309
# Source:            X-Ray Dummy
# Comment:           
#
# Cycle: 0
# Number of Scans: 10
#
# Cycle: 0, Curve: 0
# Acquisition Date: 09/08/22 14:05:14 UTC
#
# ColumnLabels: energy counts/s
#
409  1028.25
408.9  1045.875
408.8  1040
408.7  1032.375
408.6  1047.375
408.5  1037.25
408.4  1049
408.3  1033.625
408.2  1044.375
408.1  1041.375
408  1044.125
407.9  1018.25
407.8  1052.375
407.7  1027.625
407.6  1048.5
407.5  1051
407.4  1049.25
407.3  1042.375
407.2  1024.5
407.1  1058.25
407  1046.625
406.9  1049.375
406.8  1068.5
406.7  1034.5
406.6  1045.5
406.5  1020.125
406.4  1057.25
406.3  1042.5
406.2  1033.5
406.1  1048
406  1053.375
405.9  1038.125
405.8  1023.625
405.7  1031
405.6  1046.375
405.5  1050.375
405.4  1044.75
405.3  1028.125
405.2  1069.875
405.1  1042.5
405  1050.875
404.9  1038
404.8  1048.875
404.7  1059.125
404.6  1040.625
404.5  1028.5
404.4  1021.5
404.3  1053.375
404.2  1058.375
404.1  1015.125
404  1044.125
403.9  1041.75
403.8  1031.625
403.7  1039.5
403.6  1049.25
403.5  1048
403.4  1063.5
403.3  1068.75
403.2  1038.75
403.1  1054.875
403  1030.125
402.9  1048.25
402.8  1060.375
402.7  1067.875
402.6  1066.25
402.5  1065.125
402.4  1055.125
402.3  1071.875
402.2  1092.625
402.1  1084
402  1074.375
401.9  1063.75
401.8  1094.25
401.7  1097.375
401.6  1105
401.5  1105
401.4  1076.25
401.3  1095
401.2  1118.875
401.1  1112.75
401  1118.875
400.9  1116.875
400.8  1127.625
400.7  1126.375
400.6  1137.625
400.5  1106.75
400.4  1118.5
400.3  1113.875
400.2  1129
400.1  1099.875
400  1130.375
399.9  1107.625
399.8  1089.75
399.7  1110.25
399.6  1101.25
399.5  1103
399.4  1089.25
399.3  1084.25
399.2  1085.875
399.1  1086.875
399  1091.875
398.9  1066.875
398.8  1048
398.7  1100.5
398.6  1056.75
398.5  1058
398.4  1061.75
398.3  1045.5
398.2  1055.625
398.1  1036.375
398  1039.75
397.9  1043.375
397.8  1021.25
397.7  1019.125
397.6  1029.125
397.5  1047.75
397.4  1049.875
397.3  1024.125
397.2  1037.75
397.1  1020.75
397  1041.625

# Region:            Si2s
# Acquisition Date:  09/08/22 14:17:54 UTC
# Analysis Method:   XPS
# Analyzer:          Phoibos 100 R6
# Analyzer Lens:     LargeArea:1.5kV
# Analyzer Slit:     1:0.2x20\B:open
# Scan Mode:         FixedAnalyzerTransmission
# Curves/Scan:       1
# Values/Curve:      71
# Dwell Time:        0.8
# Excitation Energy: 1486.61
# Binding Energy:    157
# Pass Energy:       30
# Bias Voltage:      90
# Detector Voltage:  2600
# Eff. Workfunction: 4.309
# Source:            X-Ray Dummy
# Comment:           
#
# Cycle: 0
# Number of Scans: 15
#
# Cycle: 0, Curve: 0
# Acquisition Date: 09/08/22 14:17:54 UTC
#
# ColumnLabels: energy counts/s
#
157  938.25
156.9  918.83333
156.8  934.08333
156.7  937.83333
156.6  950.25
156.5  944.41667
156.4  933.58333
156.3  944.41667
156.2  937
156.1  930.66667
156  932.08333
155.9  933.33333
155.8  950.66667
155.7  948.5
155.6  929.25
155.5  934.41667
155.4  946.16667
155.3  945.08333
155.2  942.58333
155.1  940.5
155  954.75
154.9  942.91667
154.8  936.66667
154.7  943.5
154.6  948.41667
154.5  953.16667
154.4  931.58333
154.3  954.83333
154.2  949.33333
154.1  946.91667
154  938.08333
153.9  930.16667
153.8  938.16667
153.7  930.16667
153.6  921.83333
153.5  931.33333
153.4  947
153.3  942.91667
153.2  950.5
153.1  941.91667
153  944.58333
152.9  949.91667
152.8  940.25
152.7  934.16667
152.6  959
152.5  922.08333
152.4  924.5
152.3  932.08333
152.2  908.58333
152.1  938.75
152  932
151.9  921.75
151.8  911.16667
151.7  924.91667
151.6  915.5
151.5  929.66667
151.4  920.58333
151.3  905.33333
151.2  925.16667
151.1  928.33333
151  908.16667
150.9  924.91667
150.8  909.75
150.7  923.58333
150.6  927.16667
150.5  925
150.4  928
150.3  917.5
150.2  913.33333
150.1  918.75
150  912.83333

