# Created by:        SpecsLab Prodigy, Version 4.60.2-r85849 
#
# XY-Serializer Export Settings:
#   Comment Prefix:           #
#   Output meta data:         yes
#   Energy Axis:              Binding Energy
#   Count Rate:               Counts per Second
#   Separate Scan Data:       no
#   Separate Channel Data:    no
#   External Channel Data:    yes
#   Transmission Function:    no
#   ErrorBar:                 no
#   Operation Results:        yes
#   Time Zone Format:         UTC
#
# Group:             Spectrum Group
#
# Region:            C1s
# Acquisition Date:  09/08/22 11:56:20 UTC
# Analysis Method:   XPS
# Analyzer:          Phoibos 100 R6
# Analyzer Lens:     LargeArea:1.5kV
# Analyzer Slit:     1:0.2x20\B:open
# Scan Mode:         FixedAnalyzerTransmission
# Curves/Scan:       1
# Values/Curve:      151
# Dwell Time:        0.8
# Excitation Energy: 1486.61
# Binding Energy:    295
# Pass Energy:       30
# Bias Voltage:      90
# Detector Voltage:  2600
# Eff. Workfunction: 4.309
# Source:            X-Ray Dummy
# Comment:           
#
# Cycle: 0
# Number of Scans: 6
#
# Cycle: 0, Curve: 0
# Acquisition Date: 09/08/22 11:56:20 UTC
#
# ColumnLabels: energy counts/s
#
295  948.54167
294.9  977.91667
294.8  975.20833
294.7  974.79167
294.6  971.04167
294.5  945.625
294.4  1002.2917
294.3  949.16667
294.2  997.91667
294.1  988.75
294  985.20833
293.9  987.08333
293.8  990
293.7  981.04167
293.6  976.875
293.5  961.25
293.4  962.70833
293.3  989.16667
293.2  1004.7917
293.1  955.625
293  963.54167
292.9  996.25
292.8  993.95833
292.7  995.20833
292.6  971.875
292.5  978.33333
292.4  991.45833
292.3  990
292.2  983.33333
292.1  951.25
292  974.58333
291.9  976.875
291.8  989.79167
291.7  976.875
291.6  971.66667
291.5  981.04167
291.4  982.29167
291.3  1004.1667
291.2  996.25
291.1  1010.2083
291  1016.875
290.9  991.04167
290.8  991.875
290.7  1011.0417
290.6  1011.0417
290.5  1002.5
290.4  996.04167
290.3  996.66667
290.2  1017.2917
290.1  1036.25
290  995.41667
289.9  1017.7083
289.8  1030.8333
289.7  1013.5417
289.6  1078.75
289.5  1054.7917
289.4  1059.1667
289.3  1059.375
289.2  1067.0833
289.1  1075.4167
289  1075.8333
288.9  1085.4167
288.8  1091.4583
288.7  1100.2083
288.6  1074.375
288.5  1104.375
288.4  1106.25
288.3  1114.375
288.2  1130.2083
288.1  1139.1667
288  1158.125
287.9  1155.625
287.8  1157.2917
287.7  1170
287.6  1186.0417
287.5  1228.125
287.4  1227.2917
287.3  1226.0417
287.2  1247.2917
287.1  1261.4583
287  1323.125
286.9  1320.8333
286.8  1343.3333
286.7  1316.4583
286.6  1388.9583
286.5  1396.25
286.4  1388.75
286.3  1396.4583
286.2  1430.8333
286.1  1452.0833
286  1437.7083
285.9  1436.25
285.8  1481.0417
285.7  1465.625
285.6  1434.7917
285.5  1458.3333
285.4  1453.5417
285.3  1417.0833
285.2  1428.3333
285.1  1393.75
285  1360.625
284.9  1345
284.8  1285.2083
284.7  1288.9583
284.6  1237.0833
284.5  1236.25
284.4  1160
284.3  1118.75
284.2  1086.0417
284.1  1080.4167
284  1082.9167
283.9  1077.0833
283.8  1028.9583
283.7  1022.0833
283.6  987.91667
283.5  1003.125
283.4  980.41667
283.3  995.625
283.2  971.66667
283.1  992.5
283  970.20833
282.9  967.91667
282.8  949.58333
282.7  967.5
282.6  958.95833
282.5  956.875
282.4  948.54167
282.3  969.58333
282.2  972.29167
282.1  923.75
282  943.95833
281.9  982.29167
281.8  964.375
281.7  973.75
281.6  941.875
281.5  974.16667
281.4  954.79167
281.3  940.83333
281.2  940.83333
281.1  962.08333
281  960.83333
280.9  971.25
280.8  959.16667
280.7  930.625
280.6  959.79167
280.5  949.375
280.4  939.58333
280.3  928.95833
280.2  941.875
280.1  963.54167
280  943.125

# Region:            overview
# Acquisition Date:  09/08/22 11:15:21 UTC
# Analysis Method:   XPS
# Analyzer:          Phoibos 100 R6
# Analyzer Lens:     MediumArea:1.5kV
# Analyzer Slit:     1:0.2x20\B:open
# Scan Mode:         FixedAnalyzerTransmission
# Curves/Scan:       1
# Values/Curve:      1205
# Dwell Time:        0.2
# Excitation Energy: 1486.61
# Binding Energy:    1200
# Pass Energy:       50
# Bias Voltage:      90
# Detector Voltage:  2600
# Eff. Workfunction: 4.309
# Source:            X-Ray Dummy
# Comment:           
#
# Cycle: 0
# Number of Scans: 1
#
# Cycle: 0, Curve: 0
# Acquisition Date: 09/08/22 11:15:21 UTC
#
# ColumnLabels: energy counts/s
#
1200  8880
1199  9055
1198  9050
1197  9230
1196  8595
1195  8790
1194  8780
1193  8545
1192  9140
1191  8435
1190  8110
1189  8890
1188  8540
1187  8370
1186  8815
1185  8460
1184  8725
1183  8255
1182  7955
1181  8165
1180  8315
1179  8440
1178  7910
1177  8280
1176  8345
1175  8230
1174  8185
1173  7945
1172  7725
1171  8095
1170  8295
1169  7930
1168  8105
1167  7600
1166  7870
1165  7910
1164  7705
1163  7680
1162  7935
1161  7925
1160  7780
1159  7825
1158  7575
1157  7665
1156  7780
1155  7480
1154  7690
1153  7400
1152  7580
1151  7790
1150  7555
1149  7860
1148  7680
1147  7315
1146  7435
1145  7790
1144  7150
1143  7275
1142  7175
1141  7175
1140  7425
1139  6940
1138  7305
1137  7055
1136  7015
1135  6615
1134  6865
1133  6680
1132  6780
1131  6810
1130  6720
1129  6495
1128  6350
1127  6640
1126  6705
1125  6295
1124  6755
1123  6535
1122  6580
1121  6555
1120  6325
1119  6110
1118  6390
1117  6180
1116  6580
1115  6515
1114  6490
1113  6310
1112  6675
1111  6525
1110  6340
1109  6540
1108  6430
1107  6350
1106  6440
1105  6475
1104  6565
1103  6275
1102  6110
1101  6245
1100  6245
1099  5965
1098  5990
1097  5855
1096  6125
1095  6105
1094  6085
1093  6150
1092  6135
1091  6410
1090  6575
1089  6805
1088  7140
1087  7580
1086  7295
1085  7100
1084  6750
1083  6635
1082  6160
1081  6245
1080  6505
1079  6115
1078  5825
1077  5920
1076  5670
1075  5005
1074  4775
1073  5030
1072  5120
1071  5360
1070  5140
1069  5065
1068  5080
1067  5145
1066  5060
1065  4770
1064  4550
1063  4925
1062  4945
1061  5045
1060  5005
1059  4800
1058  4680
1057  4880
1056  5020
1055  4820
1054  4865
1053  4615
1052  4655
1051  4400
1050  4650
1049  4605
1048  4605
1047  4625
1046  4420
1045  4735
1044  4590
1043  4655
1042  4565
1041  4440
1040  4580
1039  4745
1038  4660
1037  4610
1036  4425
1035  4470
1034  4415
1033  4615
1032  4520
1031  4845
1030  4520
1029  4475
1028  4515
1027  4430
1026  4860
1025  4355
1024  4335
1023  4725
1022  4780
1021  4665
1020  4795
1019  4395
1018  4215
1017  4450
1016  4575
1015  4545
1014  4550
1013  4645
1012  4710
1011  4280
1010  4710
1009  4675
1008  4695
1007  4240
1006  4335
1005  4375
1004  4660
1003  4500
1002  4460
1001  4790
1000  4660
999  4315
998  4855
997  4775
996  4350
995  4425
994  4590
993  4510
992  4505
991  4295
990  4250
989  4405
988  4330
987  4180
986  4280
985  4350
984  4335
983  4590
982  4260
981  4090
980  4475
979  4640
978  4420
977  4560
976  4995
975  5160
974  4815
973  4760
972  4380
971  4265
970  4370
969  4275
968  4520
967  4370
966  3920
965  4230
964  4065
963  4130
962  3980
961  4090
960  3830
959  3810
958  3825
957  3875
956  3915
955  3860
954  4010
953  4005
952  3800
951  4050
950  3620
949  3800
948  3810
947  4140
946  3775
945  3835
944  3950
943  3950
942  4065
941  3825
940  3810
939  3760
938  3880
937  4075
936  4110
935  4120
934  3815
933  3880
932  4010
931  3935
930  4045
929  4150
928  3780
927  4105
926  3965
925  3945
924  3875
923  4010
922  4140
921  3875
920  3945
919  3750
918  3950
917  3810
916  4010
915  3980
914  4115
913  3650
912  3965
911  3940
910  3710
909  4135
908  3970
907  4145
906  3990
905  3675
904  4000
903  4080
902  3950
901  3980
900  3965
899  4025
898  4020
897  4060
896  3935
895  3600
894  3820
893  3960
892  4040
891  3965
890  4280
889  3890
888  3765
887  3685
886  3855
885  3965
884  3815
883  3785
882  4130
881  4095
880  4190
879  3735
878  4070
877  3935
876  3920
875  4150
874  3855
873  3940
872  3955
871  3835
870  4010
869  3845
868  3650
867  4195
866  3875
865  4005
864  3750
863  4045
862  4065
861  3915
860  3940
859  3935
858  3935
857  4135
856  3710
855  3935
854  4085
853  3700
852  3905
851  4155
850  3750
849  4180
848  3945
847  4355
846  4080
845  4390
844  3815
843  4035
842  3915
841  3900
840  4020
839  4170
838  4025
837  4120
836  4190
835  3985
834  4020
833  4145
832  3900
831  4035
830  4225
829  4270
828  4090
827  4415
826  4425
825  3905
824  4530
823  4005
822  4395
821  4280
820  4290
819  4225
818  4150
817  4030
816  4220
815  4415
814  4110
813  4075
812  4095
811  3935
810  4035
809  4040
808  4235
807  4020
806  4030
805  4020
804  4115
803  3935
802  3980
801  4010
800  4010
799  4200
798  3940
797  3745
796  3740
795  4025
794  4125
793  4130
792  4100
791  3830
790  4180
789  3840
788  4020
787  4095
786  3950
785  4095
784  4155
783  4490
782  4205
781  4360
780  4290
779  4145
778  4445
777  4295
776  4085
775  3850
774  3905
773  4230
772  4110
771  4040
770  4235
769  4145
768  4230
767  3895
766  4395
765  4310
764  4220
763  4165
762  4190
761  3950
760  4280
759  4095
758  4435
757  4190
756  4510
755  4210
754  3995
753  4045
752  4320
751  4140
750  4160
749  4230
748  4390
747  4515
746  3965
745  4305
744  4180
743  4120
742  4475
741  4305
740  4355
739  4165
738  4235
737  4320
736  4020
735  4100
734  3970
733  4495
732  4485
731  4170
730  4210
729  4440
728  4275
727  4150
726  4295
725  4385
724  4255
723  4215
722  4425
721  4530
720  4445
719  4415
718  4660
717  4355
716  4385
715  4360
714  4215
713  4525
712  4180
711  4245
710  4255
709  4010
708  4430
707  4615
706  4615
705  4945
704  5475
703  5070
702  4830
701  4735
700  4440
699  4240
698  4040
697  4045
696  4240
695  4190
694  4350
693  4400
692  4230
691  4265
690  4290
689  4030
688  4240
687  4270
686  4100
685  4110
684  4355
683  4195
682  4065
681  4025
680  4325
679  4150
678  3880
677  4310
676  3870
675  3975
674  3845
673  3900
672  4120
671  4180
670  4270
669  4510
668  5400
667  5925
666  5880
665  5745
664  5015
663  4390
662  3820
661  3980
660  3830
659  3725
658  3675
657  3630
656  4105
655  3755
654  3785
653  3805
652  3700
651  3775
650  3655
649  3680
648  3645
647  3660
646  3680
645  3225
644  3680
643  3610
642  3845
641  3745
640  3610
639  3795
638  3560
637  3555
636  3695
635  3585
634  3600
633  3580
632  3780
631  3690
630  3725
629  3770
628  3900
627  3565
626  3580
625  3745
624  3795
623  3800
622  3805
621  3590
620  3745
619  3780
618  3800
617  3860
616  3815
615  3890
614  3895
613  3915
612  3795
611  3760
610  3725
609  3530
608  3790
607  3880
606  4050
605  3765
604  3685
603  3890
602  3800
601  3590
600  4040
599  4125
598  3830
597  3840
596  3800
595  3750
594  3730
593  3755
592  3695
591  3950
590  4250
589  3790
588  4060
587  3825
586  3830
585  4185
584  3715
583  3860
582  3930
581  3925
580  3835
579  3735
578  3890
577  3805
576  3760
575  3925
574  4030
573  4030
572  3880
571  3985
570  4160
569  3850
568  4020
567  4270
566  3965
565  4080
564  4140
563  3720
562  3995
561  3960
560  4140
559  4200
558  3980
557  4055
556  4440
555  4160
554  4285
553  4230
552  4185
551  4310
550  4735
549  3905
548  4020
547  4235
546  4150
545  4290
544  3910
543  3900
542  4135
541  3735
540  3920
539  3780
538  3850
537  3870
536  3935
535  3970
534  4370
533  4770
532  5495
531  6410
530  6315
529  4610
528  4010
527  3800
526  3525
525  3775
524  3780
523  3540
522  3770
521  3930
520  3865
519  3810
518  4115
517  3825
516  3840
515  3770
514  3495
513  3790
512  3585
511  3620
510  3550
509  3855
508  3695
507  3890
506  3765
505  3680
504  3650
503  3705
502  3585
501  3780
500  3675
499  3815
498  4080
497  4010
496  4615
495  4510
494  4165
493  3845
492  3870
491  3580
490  3850
489  3730
488  4510
487  4635
486  4675
485  3855
484  3685
483  3635
482  3790
481  3545
480  3365
479  3620
478  3625
477  3980
476  3815
475  3685
474  3855
473  3945
472  3640
471  4020
470  3850
469  3635
468  3865
467  3670
466  3710
465  3660
464  3585
463  3560
462  3620
461  3275
460  3280
459  3095
458  3155
457  3130
456  2965
455  3420
454  5125
453  8265
452  9005
451  5070
450  2795
449  2390
448  2660
447  3780
446  8120
445  12655
444  9315
443  4550
442  2710
441  2175
440  2215
439  1735
438  1685
437  1675
436  2075
435  2290
434  2155
433  1790
432  1690
431  1455
430  1560
429  1440
428  1360
427  1400
426  1445
425  1475
424  1400
423  1350
422  1280
421  1360
420  1510
419  1235
418  1405
417  1420
416  1340
415  1250
414  1365
413  1300
412  1515
411  1175
410  1415
409  1290
408  1285
407  1320
406  1290
405  1450
404  1450
403  1400
402  1430
401  1405
400  1495
399  1365
398  1475
397  1255
396  1395
395  1250
394  1270
393  1270
392  1220
391  1200
390  1255
389  1400
388  1360
387  1300
386  1375
385  1505
384  1450
383  1350
382  1445
381  1475
380  1320
379  1390
378  1400
377  1415
376  1510
375  1430
374  1525
373  1425
372  1370
371  1325
370  1305
369  1350
368  1245
367  1320
366  1250
365  1305
364  1240
363  1345
362  1175
361  1245
360  1140
359  1020
358  1215
357  1255
356  1275
355  1225
354  1340
353  1265
352  1250
351  1275
350  1325
349  1275
348  1265
347  1305
346  1265
345  1225
344  1270
343  1280
342  1250
341  1295
340  1165
339  1375
338  1325
337  1265
336  1175
335  1385
334  1290
333  1245
332  1225
331  1365
330  1240
329  1335
328  1450
327  1355
326  1400
325  1210
324  1325
323  1295
322  1360
321  1435
320  1310
319  1435
318  1365
317  1390
316  1355
315  1320
314  1285
313  1265
312  1400
311  1355
310  1375
309  1370
308  1490
307  1420
306  1430
305  1470
304  1430
303  1460
302  1200
301  1375
300  1400
299  1350
298  1260
297  1375
296  1385
295  1440
294  1405
293  1540
292  1400
291  1385
290  1455
289  1295
288  1540
287  1800
286  1940
285  1940
284  1615
283  1575
282  1400
281  1345
280  1425
279  1345
278  1290
277  1430
276  1485
275  1190
274  1195
273  1305
272  1285
271  1110
270  1395
269  1270
268  1300
267  1295
266  1175
265  1390
264  1340
263  1325
262  1375
261  1490
260  1415
259  1425
258  1285
257  1250
256  1375
255  1340
254  1225
253  1290
252  1365
251  1230
250  1320
249  1335
248  1335
247  1130
246  1300
245  1280
244  1385
243  1435
242  1420
241  1370
240  1380
239  1260
238  1395
237  1220
236  1405
235  1170
234  1280
233  1255
232  1235
231  1450
230  1225
229  1295
228  1390
227  1265
226  1355
225  1315
224  1345
223  1305
222  1370
221  1365
220  1300
219  1245
218  1445
217  1285
216  1245
215  1250
214  1305
213  1280
212  1310
211  1350
210  1370
209  1225
208  1395
207  1410
206  1330
205  1285
204  1325
203  1240
202  1355
201  1280
200  1355
199  1360
198  1385
197  1155
196  1340
195  1390
194  1365
193  1390
192  1360
191  1325
190  1325
189  1365
188  1405
187  1420
186  1385
185  1210
184  1315
183  1210
182  1245
181  1400
180  1335
179  1295
178  1545
177  1400
176  1270
175  1450
174  1395
173  1400
172  1305
171  1285
170  1610
169  1500
168  1285
167  1425
166  1340
165  1465
164  1385
163  1280
162  1375
161  1335
160  1285
159  1365
158  1515
157  1670
156  1500
155  1410
154  1555
153  1410
152  1455
151  1305
150  1425
149  1325
148  1375
147  1375
146  1465
145  1340
144  1435
143  1365
142  1365
141  1325
140  1485
139  1415
138  1375
137  1305
136  1565
135  1400
134  1415
133  1280
132  1340
131  1400
130  1450
129  1330
128  1420
127  1385
126  1540
125  1460
124  1540
123  1560
122  1580
121  1565
120  1210
119  1310
118  1370
117  1350
116  1390
115  1270
114  1370
113  1385
112  1415
111  1430
110  1365
109  1380
108  1155
107  1310
106  1365
105  1340
104  1285
103  1515
102  1435
101  1260
100  1375
99  1485
98  1395
97  1335
96  1480
95  1405
94  1370
93  1430
92  1445
91  1365
90  1330
89  1495
88  1405
87  1470
86  1590
85  1550
84  1630
83  1415
82  1470
81  1450
80  1540
79  1445
78  1545
77  1525
76  1585
75  1325
74  1270
73  1265
72  1375
71  1160
70  1255
69  1070
68  1145
67  1105
66  1070
65  1070
64  985
63  1125
62  925
61  985
60  1180
59  970
58  1100
57  1220
56  1060
55  1060
54  1030
53  1135
52  1130
51  1045
50  1165
49  1005
48  1075
47  1060
46  1010
45  1005
44  1040
43  1125
42  1140
41  1055
40  930
39  1215
38  1080
37  1015
36  1040
35  1055
34  1025
33  935
32  1065
31  1070
30  1030
29  1005
28  1150
27  1055
26  1160
25  1150
24  1055
23  1015
22  1110
21  1165
20  1725
19  2735
18  2975
17  2075
16  1200
15  840
14  730
13  720
12  665
11  860
10  955
9  920
8  965
7  870
6  905
5  795
4  745
3  645
2  725
1  700
-2.2737368e-013  540
-1  640
-2  595
-3  630
-4  705

# Region:            In3d
# Acquisition Date:  09/08/22 11:31:34 UTC
# Analysis Method:   XPS
# Analyzer:          Phoibos 100 R6
# Analyzer Lens:     LargeArea:1.5kV
# Analyzer Slit:     1:0.2x20\B:open
# Scan Mode:         FixedAnalyzerTransmission
# Curves/Scan:       1
# Values/Curve:      231
# Dwell Time:        0.8
# Excitation Energy: 1486.61
# Binding Energy:    460
# Pass Energy:       30
# Bias Voltage:      90
# Detector Voltage:  2600
# Eff. Workfunction: 4.309
# Source:            X-Ray Dummy
# Comment:           
#
# Cycle: 0
# Number of Scans: 2
#
# Cycle: 0, Curve: 0
# Acquisition Date: 09/08/22 11:31:34 UTC
#
# ColumnLabels: energy counts/s
#
460  2657.5
459.9  2583.75
459.8  2581.875
459.7  2566.875
459.6  2598.75
459.5  2560.625
459.4  2478.125
459.3  2540.625
459.2  2506.875
459.1  2513.125
459  2530
458.9  2494.375
458.8  2491.875
458.7  2500.625
458.6  2476.25
458.5  2464.375
458.4  2504.375
458.3  2431.25
458.2  2473.125
458.1  2381.875
458  2404.375
457.9  2414.375
457.8  2333.75
457.7  2406.875
457.6  2401.25
457.5  2490.625
457.4  2533.125
457.3  2384.375
457.2  2381.25
457.1  2471.25
457  2383.75
456.9  2357.5
456.8  2416.25
456.7  2375
456.6  2350
456.5  2433.75
456.4  2422.5
456.3  2453.75
456.2  2427.5
456.1  2454.375
456  2438.75
455.9  2519.375
455.8  2490
455.7  2503.125
455.6  2547.5
455.5  2581.875
455.4  2661.875
455.3  2621.25
455.2  2677.5
455.1  2668.125
455  2802.5
454.9  2865.625
454.8  2954.375
454.7  3101.875
454.6  3221.25
454.5  3443.125
454.4  3506.25
454.3  3740.625
454.2  3861.875
454.1  4085.625
454  4374.375
453.9  4751.25
453.8  5027.5
453.7  5377.5
453.6  5751.25
453.5  6111.875
453.4  6445
453.3  6790
453.2  7124.375
453.1  7407.5
453  7766.25
452.9  8077.5
452.8  8488.75
452.7  8530.625
452.6  8498.125
452.5  8542.5
452.4  8433.75
452.3  8135.625
452.2  7941.875
452.1  7561.875
452  7179.375
451.9  6647.5
451.8  6315.625
451.7  5859.375
451.6  5358.75
451.5  4961.25
451.4  4410
451.3  4031.25
451.2  3688.75
451.1  3351.875
451  3046.25
450.9  2901.25
450.8  2708.75
450.7  2568.125
450.6  2388.125
450.5  2338.125
450.4  2254.375
450.3  2229.375
450.2  2103.75
450.1  2093.125
450  2013.125
449.9  2023.75
449.8  2063.75
449.7  1978.125
449.6  1950
449.5  1873.125
449.4  1951.875
449.3  1919.375
449.2  1966.25
449.1  1969.375
449  1858.75
448.9  1995
448.8  1916.875
448.7  1907.5
448.6  1952.5
448.5  2000
448.4  2039.375
448.3  2045.625
448.2  2053.75
448.1  2110.625
448  2232.5
447.9  2282.5
447.8  2335.625
447.7  2408.125
447.6  2528.75
447.5  2613.75
447.4  2705.625
447.3  2855
447.2  2955
447.1  3209.375
447  3300
446.9  3618.75
446.8  3933.125
446.7  4180.625
446.6  4603.125
446.5  4781.25
446.4  5276.875
446.3  5713.75
446.2  6194.375
446.1  6713.125
446  7169.375
445.9  7673.75
445.8  8396.875
445.7  8706.25
445.6  9265
445.5  9673.75
445.4  10253.125
445.3  10596.875
445.2  10579.375
445.1  10935
445  11275.625
444.9  10815
444.8  10556.875
444.7  10372.5
444.6  10032.5
444.5  9472.5
444.4  8923.75
444.3  8166.25
444.2  7630
444.1  6864.375
444  6178.75
443.9  5608.125
443.8  5173.75
443.7  4576.875
443.6  4203.75
443.5  3846.25
443.4  3480
443.3  3258.75
443.2  3036.875
443.1  2895
443  2668.75
442.9  2666.875
442.8  2500.625
442.7  2450.625
442.6  2291.25
442.5  2291.875
442.4  2201.875
442.3  2144.375
442.2  2160.625
442.1  1991.25
442  2004.375
441.9  1903.75
441.8  1836.875
441.7  1870
441.6  1767.5
441.5  1781.875
441.4  1781.875
441.3  1815
441.2  1723.75
441.1  1711.25
441  1671.25
440.9  1640
440.8  1680.625
440.7  1660
440.6  1625.625
440.5  1646.875
440.4  1611.25
440.3  1640.625
440.2  1523.75
440.1  1541.875
440  1563.75
439.9  1495
439.8  1504.375
439.7  1421.25
439.6  1454.375
439.5  1449.375
439.4  1445
439.3  1389.375
439.2  1371.875
439.1  1361.875
439  1418.125
438.9  1361.25
438.8  1340
438.7  1310
438.6  1368.125
438.5  1292.5
438.4  1316.25
438.3  1316.875
438.2  1364.375
438.1  1293.75
438  1286.25
437.9  1267.5
437.8  1314.375
437.7  1338.125
437.6  1342.5
437.5  1288.125
437.4  1303.125
437.3  1343.75
437.2  1371.25
437.1  1354.375
437  1408.75

# Region:            Sn3d
# Acquisition Date:  09/08/22 11:21:52 UTC
# Analysis Method:   XPS
# Analyzer:          Phoibos 100 R6
# Analyzer Lens:     LargeArea:1.5kV
# Analyzer Slit:     1:0.2x20\B:open
# Scan Mode:         FixedAnalyzerTransmission
# Curves/Scan:       1
# Values/Curve:      231
# Dwell Time:        0.8
# Excitation Energy: 1486.61
# Binding Energy:    503
# Pass Energy:       30
# Bias Voltage:      90
# Detector Voltage:  2600
# Eff. Workfunction: 4.309
# Source:            X-Ray Dummy
# Comment:           
#
# Cycle: 0
# Number of Scans: 1
#
# Cycle: 0, Curve: 0
# Acquisition Date: 09/08/22 11:21:52 UTC
#
# ColumnLabels: energy counts/s
#
503  3165
502.9  3092.5
502.8  3208.75
502.7  3153.75
502.6  3267.5
502.5  3166.25
502.4  3102.5
502.3  3087.5
502.2  3175
502.1  3145
502  3222.5
501.9  3323.75
501.8  3096.25
501.7  3212.5
501.6  3133.75
501.5  3333.75
501.4  3192.5
501.3  3155
501.2  3191.25
501.1  3322.5
501  3123.75
500.9  3223.75
500.8  3138.75
500.7  3198.75
500.6  3182.5
500.5  3168.75
500.4  3273.75
500.3  3175
500.2  3366.25
500.1  3255
500  3153.75
499.9  3186.25
499.8  3282.5
499.7  3235
499.6  3161.25
499.5  3235
499.4  3266.25
499.3  3165
499.2  3133.75
499.1  3065
499  3147.5
498.9  3212.5
498.8  3181.25
498.7  3132.5
498.6  3263.75
498.5  3246.25
498.4  3227.5
498.3  3358.75
498.2  3318.75
498.1  3257.5
498  3353.75
497.9  3285
497.8  3380
497.7  3410
497.6  3460
497.5  3355
497.4  3473.75
497.3  3451.25
497.2  3447.5
497.1  3558.75
497  3467.5
496.9  3510
496.8  3458.75
496.7  3615
496.6  3500
496.5  3580
496.4  3675
496.3  3715
496.2  3827.5
496.1  3791.25
496  3826.25
495.9  4073.75
495.8  3941.25
495.7  3925
495.6  3965
495.5  3943.75
495.4  3723.75
495.3  3872.5
495.2  3858.75
495.1  3962.5
495  3888.75
494.9  3810
494.8  3786.25
494.7  3527.5
494.6  3583.75
494.5  3500
494.4  3486.25
494.3  3437.5
494.2  3416.25
494.1  3471.25
494  3238.75
493.9  3292.5
493.8  3227.5
493.7  3205
493.6  3101.25
493.5  3192.5
493.4  3093.75
493.3  3057.5
493.2  3100
493.1  3017.5
493  3138.75
492.9  3015
492.8  3033.75
492.7  3038.75
492.6  3117.5
492.5  3128.75
492.4  3102.5
492.3  3001.25
492.2  3097.5
492.1  3028.75
492  3016.25
491.9  3123.75
491.8  2988.75
491.7  3126.25
491.6  3030
491.5  3041.25
491.4  2998.75
491.3  2973.75
491.2  2947.5
491.1  3021.25
491  2978.75
490.9  3042.5
490.8  3026.25
490.7  2947.5
490.6  3097.5
490.5  3105
490.4  2892.5
490.3  3097.5
490.2  3113.75
490.1  2985
490  3102.5
489.9  3190
489.8  3136.25
489.7  3180
489.6  3063.75
489.5  3186.25
489.4  3133.75
489.3  3190
489.2  3236.25
489.1  3233.75
489  3245
488.9  3181.25
488.8  3372.5
488.7  3227.5
488.6  3315
488.5  3400
488.4  3442.5
488.3  3401.25
488.2  3595
488.1  3613.75
488  3757.5
487.9  3735
487.8  3776.25
487.7  4085
487.6  3921.25
487.5  3985
487.4  4112.5
487.3  4150
487.2  4258.75
487.1  4123.75
487  4260
486.9  4248.75
486.8  4175
486.7  4078.75
486.6  4267.5
486.5  4123.75
486.4  3977.5
486.3  3945
486.2  3858.75
486.1  3707.5
486  3646.25
485.9  3647.5
485.8  3571.25
485.7  3515
485.6  3333.75
485.5  3333.75
485.4  3317.5
485.3  3272.5
485.2  3203.75
485.1  3256.25
485  3198.75
484.9  3062.5
484.8  3073.75
484.7  3153.75
484.6  3058.75
484.5  3170
484.4  3088.75
484.3  3048.75
484.2  3113.75
484.1  3152.5
484  3063.75
483.9  3126.25
483.8  3035
483.7  3071.25
483.6  3073.75
483.5  3051.25
483.4  3140
483.3  3043.75
483.2  3127.5
483.1  3057.5
483  3051.25
482.9  3037.5
482.8  3005
482.7  2962.5
482.6  3068.75
482.5  2962.5
482.4  2997.5
482.3  2985
482.2  3082.5
482.1  3011.25
482  2965
481.9  3028.75
481.8  3001.25
481.7  2968.75
481.6  3105
481.5  3090
481.4  2988.75
481.3  3218.75
481.2  3037.5
481.1  2945
481  3052.5
480.9  2993.75
480.8  3027.5
480.7  3060
480.6  2862.5
480.5  3161.25
480.4  2860
480.3  3051.25
480.2  3065
480.1  3037.5
480  2958.75

# Region:            O1s
# Acquisition Date:  09/08/22 11:46:13 UTC
# Analysis Method:   XPS
# Analyzer:          Phoibos 100 R6
# Analyzer Lens:     LargeArea:1.5kV
# Analyzer Slit:     1:0.2x20\B:open
# Scan Mode:         FixedAnalyzerTransmission
# Curves/Scan:       1
# Values/Curve:      111
# Dwell Time:        0.8
# Excitation Energy: 1486.61
# Binding Energy:    538
# Pass Energy:       30
# Bias Voltage:      90
# Detector Voltage:  2600
# Eff. Workfunction: 4.309
# Source:            X-Ray Dummy
# Comment:           
#
# Cycle: 0
# Number of Scans: 4
#
# Cycle: 0, Curve: 0
# Acquisition Date: 09/08/22 11:46:13 UTC
#
# ColumnLabels: energy counts/s
#
538  3392.1875
537.9  3418.125
537.8  3395.625
537.7  3431.875
537.6  3417.1875
537.5  3380.9375
537.4  3416.5625
537.3  3395.9375
537.2  3364.6875
537.1  3428.75
537  3440.9375
536.9  3393.125
536.8  3366.5625
536.7  3428.4375
536.6  3394.0625
536.5  3391.5625
536.4  3414.6875
536.3  3360.3125
536.2  3433.4375
536.1  3399.0625
536  3412.8125
535.9  3375.625
535.8  3402.1875
535.7  3470.3125
535.6  3528.125
535.5  3433.125
535.4  3481.875
535.3  3445.9375
535.2  3408.4375
535.1  3490.3125
535  3490.9375
534.9  3530
534.8  3582.1875
534.7  3535.3125
534.6  3629.0625
534.5  3590.9375
534.4  3610.3125
534.3  3749.375
534.2  3660.9375
534.1  3750.3125
534  3796.5625
533.9  3836.25
533.8  3913.75
533.7  3936.875
533.6  3912.1875
533.5  4082.8125
533.4  4135.9375
533.3  4218.75
533.2  4352.5
533.1  4303.125
533  4415.3125
532.9  4482.1875
532.8  4525.3125
532.7  4572.1875
532.6  4685.9375
532.5  4850.9375
532.4  4847.8125
532.3  4956.875
532.2  5021.875
532.1  5007.1875
532  5150.3125
531.9  5221.5625
531.8  5326.875
531.7  5409.6875
531.6  5548.75
531.5  5500.9375
531.4  5657.1875
531.3  5641.5625
531.2  5714.375
531.1  5949.375
531  5913.125
530.9  5846.5625
530.8  5930
530.7  5883.4375
530.6  5862.5
530.5  5929.375
530.4  5645
530.3  5628.75
530.2  5468.125
530.1  5328.125
530  5110.9375
529.9  5010
529.8  4830.625
529.7  4601.875
529.6  4457.5
529.5  4276.25
529.4  4150.3125
529.3  3958.75
529.2  3839.0625
529.1  3765.9375
529  3717.8125
528.9  3626.875
528.8  3540
528.7  3505.3125
528.6  3448.4375
528.5  3428.75
528.4  3385.3125
528.3  3340.3125
528.2  3305.9375
528.1  3342.1875
528  3273.4375
527.9  3260.9375
527.8  3352.1875
527.7  3315.9375
527.6  3305
527.5  3313.125
527.4  3260.625
527.3  3259.6875
527.2  3303.75
527.1  3252.5
527  3242.8125

# Region:            Si2p
# Acquisition Date:  09/08/22 12:10:43 UTC
# Analysis Method:   XPS
# Analyzer:          Phoibos 100 R6
# Analyzer Lens:     LargeArea:1.5kV
# Analyzer Slit:     1:0.2x20\B:open
# Scan Mode:         FixedAnalyzerTransmission
# Curves/Scan:       1
# Values/Curve:      101
# Dwell Time:        0.8
# Excitation Energy: 1486.61
# Binding Energy:    110
# Pass Energy:       30
# Bias Voltage:      90
# Detector Voltage:  2600
# Eff. Workfunction: 4.309
# Source:            X-Ray Dummy
# Comment:           
#
# Cycle: 0
# Number of Scans: 10
#
# Cycle: 0, Curve: 0
# Acquisition Date: 09/08/22 12:10:43 UTC
#
# ColumnLabels: energy counts/s
#
110  924.25
109.9  887.75
109.8  923.875
109.7  896.25
109.6  901.25
109.5  905.125
109.4  886.375
109.3  908.5
109.2  909.5
109.1  883.875
109  896.25
108.9  905.25
108.8  898.75
108.7  911
108.6  901.75
108.5  918.625
108.4  914.5
108.3  914.75
108.2  900.5
108.1  902.375
108  894.5
107.9  903.25
107.8  893.25
107.7  1002
107.6  896.375
107.5  898.5
107.4  898.75
107.3  898.75
107.2  892.875
107.1  896
107  917.375
106.9  918.875
106.8  905.75
106.7  906.75
106.6  911.125
106.5  890.125
106.4  911.125
106.3  915
106.2  904.625
106.1  899.875
106  888.75
105.9  905
105.8  911.875
105.7  912.25
105.6  907.125
105.5  904.875
105.4  925.25
105.3  912.25
105.2  907.25
105.1  908.625
105  891
104.9  888.5
104.8  915.125
104.7  910.25
104.6  906.25
104.5  912.25
104.4  927.375
104.3  915
104.2  916.125
104.1  925
104  924.625
103.9  921.25
103.8  934.875
103.7  935.75
103.6  913.125
103.5  938.875
103.4  930.75
103.3  919.75
103.2  934.625
103.1  939.625
103  964.625
102.9  943.5
102.8  929.25
102.7  932.75
102.6  947.25
102.5  956
102.4  925
102.3  950
102.2  936.375
102.1  936.125
102  924
101.9  932.5
101.8  920.25
101.7  920.875
101.6  915.375
101.5  911.625
101.4  934.875
101.3  894.125
101.2  920.25
101.1  908.75
101  933.625
100.9  916.125
100.8  904.25
100.7  909
100.6  911.5
100.5  921.5
100.4  907.75
100.3  914.5
100.2  921
100.1  928
100  921

# Region:            N1s
# Acquisition Date:  09/08/22 12:21:31 UTC
# Analysis Method:   XPS
# Analyzer:          Phoibos 100 R6
# Analyzer Lens:     LargeArea:1.5kV
# Analyzer Slit:     1:0.2x20\B:open
# Scan Mode:         FixedAnalyzerTransmission
# Curves/Scan:       1
# Values/Curve:      121
# Dwell Time:        0.8
# Excitation Energy: 1486.61
# Binding Energy:    409
# Pass Energy:       30
# Bias Voltage:      90
# Detector Voltage:  2600
# Eff. Workfunction: 4.309
# Source:            X-Ray Dummy
# Comment:           
#
# Cycle: 0
# Number of Scans: 15
#
# Cycle: 0, Curve: 0
# Acquisition Date: 09/08/22 12:21:31 UTC
#
# ColumnLabels: energy counts/s
#
409  1040.6667
408.9  1049.5
408.8  1055.4167
408.7  1043.6667
408.6  1061.25
408.5  1040.6667
408.4  1056.8333
408.3  1042.4167
408.2  1041.5
408.1  1050.5833
408  1045.25
407.9  1041.8333
407.8  1054.5
407.7  1050.75
407.6  1039.8333
407.5  1055.0833
407.4  1060.9167
407.3  1051.5833
407.2  1115.6667
407.1  1051
407  1048.9167
406.9  1043.8333
406.8  1059.4167
406.7  1057.3333
406.6  1050.8333
406.5  1039.9167
406.4  1045
406.3  1059.0833
406.2  1046.3333
406.1  1061.25
406  1061.4167
405.9  1057.6667
405.8  1051.8333
405.7  1075.9167
405.6  1046.9167
405.5  1046.0833
405.4  1054
405.3  1057.25
405.2  1046.1667
405.1  1054.0833
405  1065.75
404.9  1054.25
404.8  1052
404.7  1061
404.6  1054.4167
404.5  1059.3333
404.4  1058.1667
404.3  1053.1667
404.2  1060.4167
404.1  1069.75
404  1052.1667
403.9  1052.5
403.8  1077
403.7  1061.5
403.6  1051.75
403.5  1056.5
403.4  1074.3333
403.3  1060
403.2  1060.6667
403.1  1054.0833
403  1063.9167
402.9  1062.5833
402.8  1063.1667
402.7  1063.5
402.6  1056.1667
402.5  1072.3333
402.4  1079.1667
402.3  1090.1667
402.2  1088.3333
402.1  1065.6667
402  1113.3333
401.9  1103.3333
401.8  1088.5833
401.7  1090.8333
401.6  1114.4167
401.5  1111.75
401.4  1116.1667
401.3  1119.4167
401.2  1105.9167
401.1  1129.75
401  1129.1667
400.9  1127.5833
400.8  1139.0833
400.7  1152.1667
400.6  1143.6667
400.5  1143.6667
400.4  1141.25
400.3  1137.8333
400.2  1139.1667
400.1  1152.4167
400  1125.8333
399.9  1117.6667
399.8  1127.3333
399.7  1116.5833
399.6  1111.6667
399.5  1097.5
399.4  1111.1667
399.3  1106.5
399.2  1078.8333
399.1  1087.3333
399  1100.5833
398.9  1067.1667
398.8  1074.9167
398.7  1050.6667
398.6  1053.6667
398.5  1050.6667
398.4  1068.3333
398.3  1051.5
398.2  1051.0833
398.1  1068.5
398  1042.3333
397.9  1024.0833
397.8  1049.5833
397.7  1047.6667
397.6  1058.0833
397.5  1055.75
397.4  1040.6667
397.3  1026.25
397.2  1021.5833
397.1  1036.4167
397  1032.5833

# Region:            Si2s
# Acquisition Date:  09/08/22 12:44:30 UTC
# Analysis Method:   XPS
# Analyzer:          Phoibos 100 R6
# Analyzer Lens:     LargeArea:1.5kV
# Analyzer Slit:     1:0.2x20\B:open
# Scan Mode:         FixedAnalyzerTransmission
# Curves/Scan:       1
# Values/Curve:      71
# Dwell Time:        0.8
# Excitation Energy: 1486.61
# Binding Energy:    157
# Pass Energy:       30
# Bias Voltage:      90
# Detector Voltage:  2600
# Eff. Workfunction: 4.309
# Source:            X-Ray Dummy
# Comment:           
#
# Cycle: 0
# Number of Scans: 22
#
# Cycle: 0, Curve: 0
# Acquisition Date: 09/08/22 12:44:30 UTC
#
# ColumnLabels: energy counts/s
#
157  926.81818
156.9  945.79545
156.8  940.05682
156.7  947.5
156.6  952.21591
156.5  938.92045
156.4  952.67045
156.3  942.38636
156.2  932.78409
156.1  933.40909
156  940.28409
155.9  927.72727
155.8  944.31818
155.7  934.82955
155.6  933.52273
155.5  944.88636
155.4  948.125
155.3  938.35227
155.2  947.38636
155.1  953.86364
155  931.64773
154.9  952.89773
154.8  943.63636
154.7  953.01136
154.6  963.06818
154.5  943.52273
154.4  960.05682
154.3  955.625
154.2  947.15909
154.1  967.84091
154  950.45455
153.9  946.76136
153.8  961.59091
153.7  946.30682
153.6  950.79545
153.5  944.54545
153.4  932.27273
153.3  947.27273
153.2  938.18182
153.1  945.68182
153  941.02273
152.9  935.22727
152.8  950.51136
152.7  933.97727
152.6  940.56818
152.5  923.92045
152.4  916.93182
152.3  918.57955
152.2  939.31818
152.1  920.11364
152  919.60227
151.9  935
151.8  923.29545
151.7  928.86364
151.6  913.57955
151.5  922.27273
151.4  914.88636
151.3  928.75
151.2  922.32955
151.1  911.47727
151  928.97727
150.9  934.60227
150.8  937.27273
150.7  940.34091
150.6  933.52273
150.5  915.28409
150.4  930.45455
150.3  923.86364
150.2  927.32955
150.1  925.68182
150  908.40909

