# Created by:        SpecsLab Prodigy, Version 4.60.2-r85849 
#
# XY-Serializer Export Settings:
#   Comment Prefix:           #
#   Output meta data:         yes
#   Energy Axis:              Binding Energy
#   Count Rate:               Counts per Second
#   Separate Scan Data:       no
#   Separate Channel Data:    no
#   External Channel Data:    yes
#   Transmission Function:    no
#   ErrorBar:                 no
#   Operation Results:        yes
#   Time Zone Format:         UTC
#
# Group:             Spectrum Group
#
# Region:            C1s
# Acquisition Date:  08/25/22 15:41:33 UTC
# Analysis Method:   XPS
# Analyzer:          Phoibos 100 R6
# Analyzer Lens:     LargeArea:1.5kV
# Analyzer Slit:     1:0.2x20\B:open
# Scan Mode:         FixedAnalyzerTransmission
# Curves/Scan:       1
# Values/Curve:      151
# Dwell Time:        0.8
# Excitation Energy: 1486.61
# Binding Energy:    295
# Pass Energy:       30
# Bias Voltage:      90
# Detector Voltage:  2600
# Eff. Workfunction: 4.309
# Source:            X-Ray Dummy
# Comment:           
#
# Cycle: 0
# Number of Scans: 10
#
# Cycle: 0, Curve: 0
# Acquisition Date: 08/25/22 15:41:33 UTC
#
# ColumnLabels: energy counts/s
#
295  1005
294.9  1027.875
294.8  1003.125
294.7  988
294.6  996.5
294.5  1003.375
294.4  1000.75
294.3  996.375
294.2  1017
294.1  1018.125
294  1006.75
293.9  1016.75
293.8  1001.875
293.7  1014.875
293.6  1005.25
293.5  1012
293.4  1006
293.3  1025
293.2  1019.125
293.1  1011.75
293  1013.125
292.9  1015.75
292.8  1021.75
292.7  1004.625
292.6  1017.625
292.5  1015.625
292.4  997.875
292.3  992
292.2  1014.25
292.1  1026.375
292  1004.875
291.9  988.25
291.8  1002.125
291.7  1009.75
291.6  995.125
291.5  1001
291.4  981.5
291.3  998.75
291.2  1008
291.1  985.875
291  1013.5
290.9  1008.875
290.8  1008.5
290.7  986.875
290.6  1002.875
290.5  1044.75
290.4  1021
290.3  1025.375
290.2  1034.125
290.1  1008
290  1019.75
289.9  1032.875
289.8  1022.25
289.7  1006.5
289.6  1043.75
289.5  1014.75
289.4  1049.625
289.3  1041.875
289.2  1015.75
289.1  1028.125
289  1037.375
288.9  1064.125
288.8  1062.625
288.7  1054.625
288.6  1063.5
288.5  1058.25
288.4  1070.375
288.3  1064.75
288.2  1082.75
288.1  1107.625
288  1087.375
287.9  1131.375
287.8  1109.875
287.7  1136.625
287.6  1143.5
287.5  1178.625
287.4  1177.5
287.3  1185.625
287.2  1181.25
287.1  1214.375
287  1209
286.9  1213.625
286.8  1241.875
286.7  1231.375
286.6  1265.375
286.5  1252.25
286.4  1245.125
286.3  1243.875
286.2  1287.875
286.1  1263.125
286  1255.625
285.9  1269.375
285.8  1276
285.7  1283.75
285.6  1255.75
285.5  1259.5
285.4  1241
285.3  1252.125
285.2  1216.5
285.1  1215
285  1209.5
284.9  1193.375
284.8  1167.125
284.7  1164
284.6  1152.125
284.5  1123
284.4  1105.5
284.3  1092.875
284.2  1073.25
284.1  1068
284  1048.625
283.9  1041.875
283.8  1056.875
283.7  1031
283.6  1026.75
283.5  1016.875
283.4  1012.5
283.3  995.75
283.2  1000.25
283.1  1001.25
283  1011.625
282.9  1003.375
282.8  1017.75
282.7  992.375
282.6  1004
282.5  986.125
282.4  975.625
282.3  995
282.2  980.875
282.1  999.625
282  995.375
281.9  986.5
281.8  1012.75
281.7  1000.5
281.6  988.75
281.5  991.25
281.4  989.875
281.3  1018.625
281.2  1012.625
281.1  985.375
281  986.375
280.9  997.5
280.8  992.25
280.7  987.5
280.6  992.5
280.5  982.5
280.4  1003.25
280.3  986.875
280.2  983.875
280.1  981.125
280  979

# Region:            N1s
# Acquisition Date:  08/25/22 16:22:34 UTC
# Analysis Method:   XPS
# Analyzer:          Phoibos 100 R6
# Analyzer Lens:     LargeArea:1.5kV
# Analyzer Slit:     1:0.2x20\B:open
# Scan Mode:         FixedAnalyzerTransmission
# Curves/Scan:       1
# Values/Curve:      121
# Dwell Time:        0.8
# Excitation Energy: 1486.61
# Binding Energy:    409
# Pass Energy:       30
# Bias Voltage:      90
# Detector Voltage:  2600
# Eff. Workfunction: 4.309
# Source:            X-Ray Dummy
# Comment:           
#
# Cycle: 0
# Number of Scans: 25
#
# Cycle: 0, Curve: 0
# Acquisition Date: 08/25/22 16:22:34 UTC
#
# ColumnLabels: energy counts/s
#
409  1108.05
408.9  1110.75
408.8  1104.3
408.7  1111.4
408.6  1108.2
408.5  1109.5
408.4  1110.6
408.3  1111.65
408.2  1122.9
408.1  1107.25
408  1106.25
407.9  1103.2
407.8  1118.05
407.7  1110.55
407.6  1126.05
407.5  1110.35
407.4  1120.55
407.3  1111.2
407.2  1117.35
407.1  1102.25
407  1117.55
406.9  1116.45
406.8  1119.25
406.7  1116.5
406.6  1103.5
406.5  1120.55
406.4  1123.6
406.3  1112.95
406.2  1104.1
406.1  1104.6
406  1101.35
405.9  1117.4
405.8  1118.5
405.7  1103.25
405.6  1108.9
405.5  1120.75
405.4  1099.4
405.3  1110.2
405.2  1109.15
405.1  1099.15
405  1107.95
404.9  1098.65
404.8  1112.85
404.7  1111.3
404.6  1108.8
404.5  1105.95
404.4  1111.75
404.3  1108.8
404.2  1116.55
404.1  1097.5
404  1101.15
403.9  1112.2
403.8  1099.15
403.7  1112.1
403.6  1123.05
403.5  1122.4
403.4  1119.55
403.3  1124.95
403.2  1112.6
403.1  1114.6
403  1119.55
402.9  1117.3
402.8  1117.6
402.7  1124.95
402.6  1132.2
402.5  1132.55
402.4  1128.75
402.3  1135.1
402.2  1134.8
402.1  1143.85
402  1135.9
401.9  1121.05
401.8  1127
401.7  1134.9
401.6  1123.45
401.5  1142.45
401.4  1144.25
401.3  1136.45
401.2  1150.25
401.1  1135.8
401  1157.05
400.9  1138.3
400.8  1142.75
400.7  1156.9
400.6  1147.85
400.5  1143.2
400.4  1130.25
400.3  1140.85
400.2  1136.25
400.1  1140.85
400  1132.75
399.9  1150.3
399.8  1154
399.7  1147.7
399.6  1126.35
399.5  1127.1
399.4  1142
399.3  1139.2
399.2  1144.4
399.1  1132.55
399  1140.55
398.9  1141.4
398.8  1114.55
398.7  1126.75
398.6  1110.4
398.5  1123.35
398.4  1107.75
398.3  1117.65
398.2  1112.85
398.1  1114.45
398  1116.35
397.9  1120.55
397.8  1108.7
397.7  1102.15
397.6  1111.55
397.5  1113.45
397.4  1112.8
397.3  1098
397.2  1102.6
397.1  1095.5
397  1097.55

# Region:            O1s (2)
# Acquisition Date:  08/25/22 14:33:41 UTC
# Analysis Method:   XPS
# Analyzer:          Phoibos 100 R6
# Analyzer Lens:     LargeArea:1.5kV
# Analyzer Slit:     1:0.2x20\B:open
# Scan Mode:         FixedAnalyzerTransmission
# Curves/Scan:       1
# Values/Curve:      141
# Dwell Time:        0.8
# Excitation Energy: 1486.61
# Binding Energy:    541
# Pass Energy:       30
# Bias Voltage:      90
# Detector Voltage:  2600
# Eff. Workfunction: 4.309
# Source:            X-Ray Dummy
# Comment:           
#
# Cycle: 0
# Number of Scans: 1
#
# Cycle: 0, Curve: 0
# Acquisition Date: 08/25/22 14:33:41 UTC
#
# ColumnLabels: energy counts/s
#
541  3812.5
540.9  3841.25
540.8  3701.25
540.7  3740
540.6  3776.25
540.5  3702.5
540.4  3768.75
540.3  3905
540.2  3783.75
540.1  3720
540  3768.75
539.9  3838.75
539.8  3720
539.7  3816.25
539.6  3766.25
539.5  3782.5
539.4  3763.75
539.3  3698.75
539.2  3757.5
539.1  3671.25
539  3767.5
538.9  3757.5
538.8  3735
538.7  3846.25
538.6  3686.25
538.5  3673.75
538.4  3712.5
538.3  3646.25
538.2  3625
538.1  3786.25
538  3753.75
537.9  3753.75
537.8  3656.25
537.7  3743.75
537.6  3682.5
537.5  3655
537.4  3686.25
537.3  3733.75
537.2  3791.25
537.1  3642.5
537  3736.25
536.9  3721.25
536.8  3787.5
536.7  3671.25
536.6  3678.75
536.5  3622.5
536.4  3596.25
536.3  3651.25
536.2  3632.5
536.1  3630
536  3787.5
535.9  3568.75
535.8  3542.5
535.7  3738.75
535.6  3761.25
535.5  3580
535.4  3810
535.3  3740
535.2  3610
535.1  3772.5
535  3770
534.9  3641.25
534.8  3717.5
534.7  3807.5
534.6  3778.75
534.5  3855
534.4  3867.5
534.3  3906.25
534.2  3983.75
534.1  3966.25
534  3897.5
533.9  3791.25
533.8  4247.5
533.7  4073.75
533.6  4173.75
533.5  4085
533.4  4195
533.3  4233.75
533.2  4271.25
533.1  4460
533  4578.75
532.9  4593.75
532.8  4672.5
532.7  4740
532.6  4928.75
532.5  4908.75
532.4  5017.5
532.3  5055
532.2  5277.5
532.1  5122.5
532  5452.5
531.9  5545
531.8  5568.75
531.7  5850
531.6  6055
531.5  6218.75
531.4  6286.25
531.3  6586.25
531.2  6736.25
531.1  6832.5
531  6933.75
530.9  7000
530.8  7256.25
530.7  7181.25
530.6  7270
530.5  7236.25
530.4  7057.5
530.3  7125
530.2  6771.25
530.1  6757.5
530  6600
529.9  6261.25
529.8  6067.5
529.7  5881.25
529.6  5510
529.5  5330
529.4  5115
529.3  4811.25
529.2  4605
529.1  4478.75
529  4261.25
528.9  4232.5
528.8  4011.25
528.7  4041.25
528.6  3966.25
528.5  3832.5
528.4  3912.5
528.3  3681.25
528.2  3812.5
528.1  3640
528  3677.5
527.9  3733.75
527.8  3656.25
527.7  3632.5
527.6  3602.5
527.5  3670
527.4  3530
527.3  3615
527.2  3526.25
527.1  3566.25
527  3516.25

# Region:            overview
# Acquisition Date:  08/25/22 14:38:10 UTC
# Analysis Method:   XPS
# Analyzer:          Phoibos 100 R6
# Analyzer Lens:     MediumArea:1.5kV
# Analyzer Slit:     1:0.2x20\B:open
# Scan Mode:         FixedAnalyzerTransmission
# Curves/Scan:       1
# Values/Curve:      1205
# Dwell Time:        0.2
# Excitation Energy: 1486.61
# Binding Energy:    1200
# Pass Energy:       50
# Bias Voltage:      90
# Detector Voltage:  2600
# Eff. Workfunction: 4.309
# Source:            X-Ray Dummy
# Comment:           
#
# Cycle: 0
# Number of Scans: 1
#
# Cycle: 0, Curve: 0
# Acquisition Date: 08/25/22 14:38:10 UTC
#
# ColumnLabels: energy counts/s
#
1200  10080
1199  9905
1198  9555
1197  9855
1196  9905
1195  10240
1194  9835
1193  9775
1192  9705
1191  9920
1190  10275
1189  9615
1188  9640
1187  9485
1186  9445
1185  9555
1184  9655
1183  9485
1182  9790
1181  9250
1180  9185
1179  8750
1178  9120
1177  8805
1176  9320
1175  9470
1174  8945
1173  8960
1172  8965
1171  8815
1170  9005
1169  8875
1168  8945
1167  8745
1166  8910
1165  9235
1164  8920
1163  8920
1162  8595
1161  8665
1160  9180
1159  8460
1158  9425
1157  9115
1156  8995
1155  8920
1154  8420
1153  8560
1152  8275
1151  8500
1150  8400
1149  8490
1148  8855
1147  8755
1146  8345
1145  8505
1144  8555
1143  8300
1142  7870
1141  7735
1140  8140
1139  7925
1138  8175
1137  7610
1136  7490
1135  7645
1134  7590
1133  7380
1132  7745
1131  7445
1130  7440
1129  7440
1128  7195
1127  7330
1126  7385
1125  7510
1124  7150
1123  7110
1122  7285
1121  7040
1120  7275
1119  7020
1118  6855
1117  7185
1116  6740
1115  7430
1114  7360
1113  7055
1112  7015
1111  6705
1110  7200
1109  6800
1108  6895
1107  6890
1106  7235
1105  6795
1104  7130
1103  6975
1102  7460
1101  7040
1100  6970
1099  6870
1098  6735
1097  6890
1096  7000
1095  6885
1094  7110
1093  7400
1092  7075
1091  7515
1090  7320
1089  8015
1088  9110
1087  9280
1086  9200
1085  8490
1084  8210
1083  7485
1082  7265
1081  7770
1080  7870
1079  7390
1078  6975
1077  6150
1076  5615
1075  5310
1074  5435
1073  5360
1072  5095
1071  5270
1070  4990
1069  5590
1068  5260
1067  5380
1066  5265
1065  5135
1064  5280
1063  5365
1062  5285
1061  5445
1060  5145
1059  5320
1058  5005
1057  4870
1056  5135
1055  4955
1054  4960
1053  4885
1052  4730
1051  4780
1050  4830
1049  4840
1048  4870
1047  4670
1046  4800
1045  4845
1044  4365
1043  4385
1042  4835
1041  4785
1040  4630
1039  4890
1038  4760
1037  4740
1036  4630
1035  4750
1034  4675
1033  4925
1032  4875
1031  4450
1030  4835
1029  4690
1028  4655
1027  4405
1026  4655
1025  4855
1024  4450
1023  4730
1022  4735
1021  4465
1020  4720
1019  4605
1018  4975
1017  4695
1016  4840
1015  4680
1014  4580
1013  4740
1012  4635
1011  4760
1010  4755
1009  4535
1008  4675
1007  4715
1006  4810
1005  4705
1004  4870
1003  4465
1002  4640
1001  4580
1000  4615
999  4620
998  5125
997  4630
996  5055
995  4685
994  4870
993  4850
992  4865
991  4680
990  4665
989  4480
988  4520
987  4865
986  4755
985  4750
984  4175
983  4605
982  4340
981  4305
980  4800
979  4635
978  4860
977  4870
976  5265
975  5715
974  5430
973  5095
972  4725
971  4560
970  4535
969  4625
968  4315
967  4565
966  4300
965  4135
964  4140
963  4060
962  4005
961  4260
960  4170
959  3955
958  4240
957  4125
956  4320
955  4090
954  4045
953  4010
952  4210
951  4205
950  4275
949  4280
948  3935
947  4055
946  4180
945  4310
944  4205
943  4155
942  4225
941  4225
940  4090
939  4340
938  4455
937  4125
936  4090
935  4325
934  4290
933  4150
932  4230
931  4215
930  4200
929  4115
928  4450
927  4085
926  4330
925  4200
924  4160
923  4130
922  4305
921  3895
920  3870
919  4055
918  4290
917  3975
916  4065
915  4055
914  4190
913  3955
912  4155
911  4070
910  4130
909  4200
908  4120
907  4140
906  4105
905  4280
904  4330
903  4230
902  4225
901  4170
900  3995
899  4010
898  4395
897  4105
896  3915
895  4015
894  4420
893  4005
892  4475
891  4180
890  4225
889  3995
888  4220
887  4295
886  4445
885  4165
884  4125
883  4425
882  4255
881  4170
880  4180
879  4180
878  3965
877  4295
876  4200
875  4000
874  3950
873  4345
872  4100
871  4450
870  4240
869  4185
868  4160
867  4370
866  4380
865  4355
864  4405
863  4170
862  4470
861  4405
860  4160
859  4415
858  4150
857  4185
856  4570
855  4230
854  4125
853  4355
852  4065
851  4030
850  4195
849  4515
848  4480
847  4665
846  4385
845  4325
844  4215
843  4485
842  4320
841  4340
840  4350
839  4085
838  4195
837  4250
836  4475
835  4365
834  4130
833  4230
832  4240
831  4460
830  4565
829  4540
828  4335
827  4555
826  4450
825  5025
824  4580
823  4470
822  4350
821  4155
820  4370
819  4585
818  4455
817  4305
816  4270
815  4300
814  4240
813  4370
812  4145
811  4405
810  4450
809  4210
808  4280
807  4380
806  4125
805  4220
804  4160
803  4130
802  4110
801  4360
800  4030
799  4370
798  4135
797  4340
796  4170
795  4150
794  4065
793  4325
792  4125
791  4520
790  4580
789  4450
788  4060
787  4305
786  4350
785  4645
784  4600
783  4425
782  4195
781  4595
780  4485
779  4265
778  4260
777  4550
776  4380
775  4190
774  4170
773  4480
772  4240
771  4485
770  4285
769  4185
768  4255
767  4420
766  4360
765  4530
764  4450
763  4490
762  4320
761  4465
760  4555
759  4950
758  4695
757  4775
756  4485
755  4515
754  4805
753  4500
752  4505
751  4625
750  4200
749  4310
748  4625
747  4690
746  4815
745  4375
744  4540
743  4795
742  4295
741  4320
740  4600
739  4655
738  4625
737  4640
736  4500
735  4745
734  4475
733  4770
732  4445
731  4740
730  4485
729  4645
728  4390
727  4450
726  4450
725  4795
724  4970
723  4595
722  4615
721  4590
720  4785
719  4825
718  4705
717  4925
716  4910
715  4730
714  4735
713  4860
712  4675
711  4505
710  4600
709  4585
708  4915
707  4890
706  5545
705  6090
704  6660
703  5685
702  5360
701  4960
700  4915
699  4645
698  4515
697  4585
696  4225
695  4620
694  4735
693  4475
692  4695
691  4865
690  4610
689  4540
688  4650
687  4550
686  4590
685  4865
684  4490
683  4705
682  4825
681  4355
680  4565
679  4655
678  4620
677  4600
676  4405
675  4425
674  4515
673  4275
672  4545
671  4755
670  5310
669  5465
668  6150
667  7295
666  7590
665  6880
664  6045
663  5010
662  4825
661  4275
660  4665
659  4260
658  4540
657  4100
656  4495
655  4210
654  4050
653  4010
652  4045
651  3775
650  3810
649  3850
648  4035
647  3735
646  3995
645  4015
644  3765
643  4065
642  3800
641  3785
640  3920
639  4020
638  3950
637  3980
636  4315
635  3820
634  3880
633  3870
632  3870
631  3925
630  4015
629  3895
628  3980
627  3550
626  4035
625  3910
624  3855
623  4090
622  4025
621  3980
620  4080
619  3970
618  3920
617  3950
616  3965
615  3840
614  3965
613  4000
612  3965
611  3960
610  3920
609  3880
608  4070
607  4070
606  3970
605  4140
604  4120
603  4000
602  4250
601  4055
600  4055
599  4225
598  3900
597  3985
596  4160
595  4000
594  4260
593  4200
592  4180
591  3955
590  4170
589  4075
588  4205
587  4255
586  4100
585  3925
584  4070
583  4070
582  4035
581  4205
580  3865
579  4230
578  3915
577  4255
576  4275
575  4065
574  4220
573  4005
572  4245
571  4255
570  4310
569  4450
568  4340
567  4350
566  4330
565  4395
564  4285
563  4295
562  4540
561  4035
560  4340
559  4440
558  4435
557  4455
556  4260
555  4600
554  4325
553  4285
552  4750
551  4455
550  4185
549  4485
548  4495
547  4385
546  4690
545  4390
544  4300
543  4370
542  4270
541  4315
540  4185
539  4255
538  4165
537  4105
536  4265
535  4105
534  4630
533  5165
532  6160
531  7600
530  7610
529  5655
528  4265
527  4070
526  4020
525  4160
524  4290
523  4270
522  4335
521  4330
520  4355
519  4295
518  4265
517  3885
516  4120
515  3995
514  4105
513  4120
512  3755
511  4105
510  3920
509  4005
508  4040
507  4300
506  4385
505  4155
504  4230
503  3970
502  4020
501  4015
500  4090
499  4085
498  4315
497  4640
496  4990
495  4825
494  4450
493  4185
492  4190
491  4370
490  3965
489  4255
488  4890
487  5245
486  4750
485  4060
484  4200
483  4150
482  4085
481  4100
480  4060
479  4180
478  4125
477  4245
476  4150
475  4305
474  4020
473  4270
472  4435
471  4385
470  4110
469  4345
468  4390
467  4290
466  4220
465  4175
464  4065
463  4255
462  4025
461  3995
460  4070
459  3745
458  3675
457  3570
456  3595
455  4225
454  7000
453  12680
452  13130
451  6880
450  3545
449  2910
448  3545
447  5830
446  11985
445  17805
444  13095
443  5840
442  3255
441  2695
440  2450
439  1920
438  1805
437  1995
436  2560
435  2645
434  3115
433  2240
432  1915
431  1615
430  1530
429  1500
428  1500
427  1535
426  1470
425  1500
424  1485
423  1620
422  1590
421  1370
420  1360
419  1545
418  1235
417  1330
416  1350
415  1430
414  1325
413  1480
412  1365
411  1410
410  1430
409  1440
408  1410
407  1405
406  1540
405  1625
404  1400
403  1495
402  1570
401  1515
400  1575
399  1420
398  1400
397  1380
396  1460
395  1325
394  1350
393  1335
392  1250
391  1450
390  1300
389  1400
388  1480
387  1320
386  1380
385  1420
384  1410
383  1475
382  1450
381  1385
380  1440
379  1455
378  1350
377  1415
376  1590
375  1435
374  1465
373  1295
372  1490
371  1375
370  1350
369  1450
368  1310
367  1400
366  1335
365  1385
364  1295
363  1310
362  1450
361  1285
360  1180
359  1385
358  1215
357  1310
356  1305
355  1190
354  1305
353  1330
352  1265
351  1345
350  1220
349  1245
348  1245
347  1315
346  1340
345  1340
344  1275
343  1410
342  1365
341  1320
340  1255
339  1410
338  1230
337  1495
336  1325
335  1180
334  1280
333  1215
332  1300
331  1325
330  1360
329  1190
328  1415
327  1390
326  1425
325  1400
324  1235
323  1345
322  1265
321  1385
320  1315
319  1395
318  1335
317  1385
316  1495
315  1320
314  1540
313  1385
312  1375
311  1345
310  1445
309  1280
308  1360
307  1395
306  1205
305  1360
304  1395
303  1345
302  1395
301  1345
300  1375
299  1225
298  1345
297  1325
296  1200
295  1435
294  1370
293  1370
292  1330
291  1415
290  1410
289  1440
288  1355
287  1615
286  1850
285  1690
284  1565
283  1430
282  1325
281  1385
280  1285
279  1440
278  1380
277  1400
276  1345
275  1255
274  1315
273  1350
272  1295
271  1295
270  1315
269  1315
268  1305
267  1250
266  1410
265  1400
264  1265
263  1435
262  1440
261  1355
260  1515
259  1485
258  1435
257  1350
256  1290
255  1420
254  1505
253  1455
252  1465
251  1375
250  1385
249  1420
248  1325
247  1280
246  1350
245  1435
244  1520
243  1325
242  1620
241  1370
240  1490
239  1440
238  1365
237  1430
236  1510
235  1345
234  1520
233  1500
232  1360
231  1490
230  1475
229  1535
228  1360
227  1350
226  1460
225  1400
224  1380
223  1350
222  1440
221  1305
220  1505
219  1445
218  1400
217  1370
216  1200
215  1360
214  1455
213  1380
212  1445
211  1525
210  1265
209  1390
208  1300
207  1460
206  1350
205  1265
204  1470
203  1350
202  1455
201  1425
200  1585
199  1460
198  1465
197  1295
196  1575
195  1305
194  1450
193  1530
192  1390
191  1415
190  1420
189  1470
188  1515
187  1305
186  1375
185  1420
184  1410
183  1345
182  1295
181  1435
180  1375
179  1470
178  1530
177  1330
176  1355
175  1430
174  1465
173  1550
172  1645
171  1365
170  1495
169  1490
168  1405
167  1365
166  1435
165  1255
164  1460
163  1490
162  1575
161  1495
160  1325
159  1500
158  1435
157  1430
156  1595
155  1515
154  1525
153  1345
152  1450
151  1425
150  1350
149  1605
148  1395
147  1410
146  1570
145  1475
144  1510
143  1425
142  1570
141  1475
140  1620
139  1580
138  1630
137  1540
136  1415
135  1435
134  1515
133  1580
132  1530
131  1440
130  1540
129  1495
128  1490
127  1375
126  1645
125  1700
124  1760
123  1700
122  1630
121  1670
120  1465
119  1575
118  1375
117  1450
116  1590
115  1405
114  1505
113  1560
112  1410
111  1530
110  1400
109  1415
108  1405
107  1460
106  1575
105  1570
104  1595
103  1555
102  1610
101  1570
100  1430
99  1500
98  1490
97  1540
96  1525
95  1410
94  1505
93  1535
92  1580
91  1450
90  1590
89  1675
88  1640
87  1805
86  1725
85  1555
84  1825
83  1650
82  1675
81  1695
80  1690
79  1890
78  1655
77  1780
76  1645
75  1610
74  1410
73  1475
72  1405
71  1330
70  1235
69  1200
68  1245
67  1295
66  1155
65  1090
64  1280
63  1125
62  1215
61  1165
60  1070
59  1290
58  1095
57  1050
56  1055
55  1170
54  1230
53  1170
52  1075
51  1170
50  1100
49  1050
48  1055
47  1190
46  1100
45  1105
44  1100
43  1160
42  1240
41  1125
40  1190
39  1145
38  1115
37  1320
36  1090
35  1050
34  1045
33  1155
32  1085
31  1070
30  1215
29  1205
28  1385
27  1315
26  1080
25  1115
24  1080
23  1150
22  1195
21  1555
20  2330
19  3840
18  3725
17  2185
16  1225
15  945
14  870
13  755
12  855
11  915
10  795
9  1035
8  900
7  1135
6  1080
5  830
4  755
3  770
2  715
1  705
-2.2737368e-013  605
-1  660
-2  865
-3  730
-4  570

# Region:            Si2p
# Acquisition Date:  08/25/22 16:04:41 UTC
# Analysis Method:   XPS
# Analyzer:          Phoibos 100 R6
# Analyzer Lens:     LargeArea:1.5kV
# Analyzer Slit:     1:0.2x20\B:open
# Scan Mode:         FixedAnalyzerTransmission
# Curves/Scan:       1
# Values/Curve:      71
# Dwell Time:        0.8
# Excitation Energy: 1486.61
# Binding Energy:    107
# Pass Energy:       30
# Bias Voltage:      90
# Detector Voltage:  2600
# Eff. Workfunction: 4.309
# Source:            X-Ray Dummy
# Comment:           
#
# Cycle: 0
# Number of Scans: 15
#
# Cycle: 0, Curve: 0
# Acquisition Date: 08/25/22 16:04:41 UTC
#
# ColumnLabels: energy counts/s
#
107  993.41667
106.9  997.58333
106.8  989.91667
106.7  987.41667
106.6  989.08333
106.5  986.66667
106.4  969.5
106.3  998.25
106.2  993.58333
106.1  989.58333
106  989.75
105.9  997.83333
105.8  998.83333
105.7  972.33333
105.6  1002.1667
105.5  994.25
105.4  995.91667
105.3  989.5
105.2  1008.25
105.1  1007.8333
105  989.41667
104.9  996.41667
104.8  1018.5833
104.7  991.5
104.6  999.75
104.5  988.83333
104.4  1013.4167
104.3  1000.6667
104.2  1004
104.1  992.91667
104  1003.25
103.9  999.41667
103.8  999.66667
103.7  981.66667
103.6  1009.3333
103.5  1009.3333
103.4  999.25
103.3  1015.0833
103.2  1005.5833
103.1  1007.8333
103  1007.25
102.9  1008.8333
102.8  1001.0833
102.7  995.83333
102.6  994
102.5  1012.0833
102.4  1010.5
102.3  1006.4167
102.2  992.08333
102.1  988.58333
102  1015.3333
101.9  1009.9167
101.8  994.08333
101.7  1009.5833
101.6  1010.25
101.5  1017.0833
101.4  1002
101.3  1009.5833
101.2  1011.9167
101.1  1014.6667
101  1009.8333
100.9  1007.9167
100.8  1009.25
100.7  997
100.6  1004.75
100.5  1003.5833
100.4  1005.9167
100.3  1005.0833
100.2  1009.75
100.1  1005.5
100  990.5

# Region:            In3d
# Acquisition Date:  08/25/22 14:54:54 UTC
# Analysis Method:   XPS
# Analyzer:          Phoibos 100 R6
# Analyzer Lens:     LargeArea:1.5kV
# Analyzer Slit:     1:0.2x20\B:open
# Scan Mode:         FixedAnalyzerTransmission
# Curves/Scan:       1
# Values/Curve:      231
# Dwell Time:        0.8
# Excitation Energy: 1486.61
# Binding Energy:    460
# Pass Energy:       30
# Bias Voltage:      90
# Detector Voltage:  2600
# Eff. Workfunction: 4.309
# Source:            X-Ray Dummy
# Comment:           
#
# Cycle: 0
# Number of Scans: 2
#
# Cycle: 0, Curve: 0
# Acquisition Date: 08/25/22 14:54:54 UTC
#
# ColumnLabels: energy counts/s
#
460  3157.5
459.9  3098.125
459.8  3080.625
459.7  3126.25
459.6  3156.25
459.5  3083.125
459.4  3142.5
459.3  3080.625
459.2  2975.625
459.1  3040.625
459  3033.75
458.9  2966.25
458.8  3018.75
458.7  3009.375
458.6  2950
458.5  3005.625
458.4  2972.5
458.3  3041.875
458.2  2983.75
458.1  2917.5
458  2878.125
457.9  3028.125
457.8  2900
457.7  2937.5
457.6  2876.875
457.5  2976.875
457.4  2905.625
457.3  2963.75
457.2  2841.25
457.1  2939.375
457  2897.5
456.9  2900
456.8  2868.75
456.7  2894.375
456.6  2962.5
456.5  3076.875
456.4  2963.75
456.3  3019.375
456.2  2962.5
456.1  3041.875
456  3088.125
455.9  3138.75
455.8  3061.875
455.7  3176.875
455.6  3196.25
455.5  3194.375
455.4  3371.25
455.3  3338.75
455.2  3390.625
455.1  3606.875
455  3791.875
454.9  3711.875
454.8  4033.125
454.7  4128.75
454.6  4329.375
454.5  4591.25
454.4  4728.75
454.3  5062.5
454.2  5320
454.1  5706.25
454  6047.5
453.9  6551.875
453.8  6748.75
453.7  7347.5
453.6  7885.625
453.5  8393.75
453.4  9036.875
453.3  9354.375
453.2  9992.5
453.1  10537.5
453  10805.625
452.9  11343.75
452.8  11595.625
452.7  11888.125
452.6  11926.25
452.5  11766.875
452.4  11720
452.3  11701.875
452.2  11107.5
452.1  10701.875
452  10025.625
451.9  9546.25
451.8  8816.25
451.7  8171.25
451.6  7388.125
451.5  6903.125
451.4  6088.75
451.3  5546.875
451.2  4991.25
451.1  4673.125
451  4185
450.9  3835
450.8  3525.625
450.7  3350.625
450.6  3078.125
450.5  2897.5
450.4  2835
450.3  2758.75
450.2  2573.125
450.1  2625.625
450  2461.875
449.9  2471.875
449.8  2513.125
449.7  2395
449.6  2378.125
449.5  2353.75
449.4  2393.75
449.3  2418.75
449.2  2370.625
449.1  2391.25
449  2274.375
448.9  2346.875
448.8  2336.875
448.7  2417.5
448.6  2490
448.5  2549.375
448.4  2516.875
448.3  2526.875
448.2  2646.875
448.1  2758.75
448  2756.875
447.9  2835
447.8  3081.25
447.7  3093.125
447.6  3338.125
447.5  3408.75
447.4  3568.125
447.3  3801.25
447.2  4061.25
447.1  4413.125
447  4690.625
446.9  5086.25
446.8  5481.25
446.7  5883.75
446.6  6271.875
446.5  6818.125
446.4  7502.5
446.3  7999.375
446.2  8833.75
446.1  9506.875
446  10153.125
445.9  11164.375
445.8  11742.5
445.7  12605
445.6  13132.5
445.5  13984.375
445.4  14452.5
445.3  15068.75
445.2  15468.75
445.1  15653.75
445  15840
444.9  15720
444.8  15355.625
444.7  14889.375
444.6  14493.75
444.5  13685
444.4  12690
444.3  11957.5
444.2  10970.625
444.1  9938.125
444  9100
443.9  7960.625
443.8  7125.625
443.7  6492.5
443.6  5904.375
443.5  5205
443.4  4956.875
443.3  4378.75
443.2  3989.375
443.1  3813.75
443  3586.25
442.9  3429.375
442.8  3248.75
442.7  3121.875
442.6  2913.75
442.5  2791.875
442.4  2796.25
442.3  2729.375
442.2  2636.875
442.1  2603.125
442  2423.125
441.9  2414.375
441.8  2375.625
441.7  2263.75
441.6  2219.375
441.5  2225
441.4  2188.125
441.3  2120
441.2  2094.375
441.1  2028.75
441  1993.125
440.9  2038.125
440.8  2063.125
440.7  2003.125
440.6  1921.25
440.5  1887.5
440.4  1883.75
440.3  1935
440.2  1795.625
440.1  1869.375
440  1800.625
439.9  1783.75
439.8  1717.5
439.7  1720.625
439.6  1756.875
439.5  1613.125
439.4  1631.25
439.3  1654.375
439.2  1568.125
439.1  1532.5
439  1553.75
438.9  1561.25
438.8  1587.5
438.7  1527.5
438.6  1491.875
438.5  1485.625
438.4  1541.875
438.3  1539.375
438.2  1493.125
438.1  1452.5
438  1459.375
437.9  1476.25
437.8  1400
437.7  1465
437.6  1480.625
437.5  1515.625
437.4  1450
437.3  1495.625
437.2  1549.375
437.1  1559.375
437  1565.625

# Region:            Sn3d
# Acquisition Date:  08/25/22 14:45:38 UTC
# Analysis Method:   XPS
# Analyzer:          Phoibos 100 R6
# Analyzer Lens:     LargeArea:1.5kV
# Analyzer Slit:     1:0.2x20\B:open
# Scan Mode:         FixedAnalyzerTransmission
# Curves/Scan:       1
# Values/Curve:      231
# Dwell Time:        0.8
# Excitation Energy: 1486.61
# Binding Energy:    503
# Pass Energy:       30
# Bias Voltage:      90
# Detector Voltage:  2600
# Eff. Workfunction: 4.309
# Source:            X-Ray Dummy
# Comment:           
#
# Cycle: 0
# Number of Scans: 1
#
# Cycle: 0, Curve: 0
# Acquisition Date: 08/25/22 14:45:38 UTC
#
# ColumnLabels: energy counts/s
#
503  3556.25
502.9  3457.5
502.8  3561.25
502.7  3447.5
502.6  3461.25
502.5  3460
502.4  3421.25
502.3  3590
502.2  3451.25
502.1  3450
502  3387.5
501.9  3558.75
501.8  3453.75
501.7  3490
501.6  3487.5
501.5  3577.5
501.4  3463.75
501.3  3545
501.2  3538.75
501.1  3428.75
501  3461.25
500.9  3546.25
500.8  3466.25
500.7  3368.75
500.6  3506.25
500.5  3540
500.4  3496.25
500.3  3607.5
500.2  3485
500.1  3462.5
500  3527.5
499.9  3530
499.8  3502.5
499.7  3467.5
499.6  3565
499.5  3555
499.4  3385
499.3  3495
499.2  3552.5
499.1  3403.75
499  3501.25
498.9  3470
498.8  3537.5
498.7  3421.25
498.6  3563.75
498.5  3510
498.4  3466.25
498.3  3582.5
498.2  3486.25
498.1  3590
498  3510
497.9  3577.5
497.8  3443.75
497.7  3500
497.6  3625
497.5  3750
497.4  3701.25
497.3  3660
497.2  3746.25
497.1  3836.25
497  3793.75
496.9  3808.75
496.8  3873.75
496.7  3976.25
496.6  3881.25
496.5  3918.75
496.4  4106.25
496.3  4167.5
496.2  4150
496.1  4142.5
496  4201.25
495.9  4076.25
495.8  4206.25
495.7  4260
495.6  4138.75
495.5  4422.5
495.4  4302.5
495.3  4216.25
495.2  4228.75
495.1  4105
495  4052.5
494.9  4026.25
494.8  4017.5
494.7  3932.5
494.6  3996.25
494.5  3746.25
494.4  3793.75
494.3  3872.5
494.2  3688.75
494.1  3665
494  3680
493.9  3527.5
493.8  3527.5
493.7  3502.5
493.6  3466.25
493.5  3465
493.4  3537.5
493.3  3482.5
493.2  3508.75
493.1  3286.25
493  3378.75
492.9  3397.5
492.8  3410
492.7  3472.5
492.6  3486.25
492.5  3328.75
492.4  3493.75
492.3  3408.75
492.2  3417.5
492.1  3400
492  3423.75
491.9  3458.75
491.8  3435
491.7  3268.75
491.6  3373.75
491.5  3426.25
491.4  3392.5
491.3  3381.25
491.2  3337.5
491.1  3453.75
491  3456.25
490.9  3413.75
490.8  3407.5
490.7  3431.25
490.6  3380
490.5  3522.5
490.4  3468.75
490.3  3412.5
490.2  3396.25
490.1  3468.75
490  3440
489.9  3465
489.8  3512.5
489.7  3561.25
489.6  3488.75
489.5  3653.75
489.4  3471.25
489.3  3643.75
489.2  3590
489.1  3601.25
489  3612.5
488.9  3725
488.8  3762.5
488.7  3841.25
488.6  3826.25
488.5  3910
488.4  3976.25
488.3  4065
488.2  4105
488.1  4175
488  4078.75
487.9  4383.75
487.8  4413.75
487.7  4342.5
487.6  4440
487.5  4557.5
487.4  4701.25
487.3  4656.25
487.2  4547.5
487.1  4645
487  4490
486.9  4557.5
486.8  4416.25
486.7  4337.5
486.6  4468.75
486.5  4261.25
486.4  4178.75
486.3  4076.25
486.2  4146.25
486.1  3916.25
486  3990
485.9  3988.75
485.8  3752.5
485.7  3716.25
485.6  3766.25
485.5  3727.5
485.4  3658.75
485.3  3543.75
485.2  3647.5
485.1  3476.25
485  3492.5
484.9  3458.75
484.8  3588.75
484.7  3412.5
484.6  3425
484.5  3397.5
484.4  3560
484.3  3337.5
484.2  3393.75
484.1  3423.75
484  3423.75
483.9  3496.25
483.8  3418.75
483.7  3502.5
483.6  3485
483.5  3398.75
483.4  3382.5
483.3  3451.25
483.2  3508.75
483.1  3387.5
483  3385
482.9  3453.75
482.8  3451.25
482.7  3437.5
482.6  3353.75
482.5  3437.5
482.4  3417.5
482.3  3451.25
482.2  3268.75
482.1  3511.25
482  3322.5
481.9  3392.5
481.8  3511.25
481.7  3438.75
481.6  3381.25
481.5  3390
481.4  3432.5
481.3  3341.25
481.2  3377.5
481.1  3336.25
481  3378.75
480.9  3400
480.8  3508.75
480.7  3407.5
480.6  3237.5
480.5  3591.25
480.4  3406.25
480.3  3508.75
480.2  3321.25
480.1  3436.25
480  3481.25

# Region:            O1s
# Acquisition Date:  08/25/22 16:06:12 UTC
# Analysis Method:   XPS
# Analyzer:          Phoibos 100 R6
# Analyzer Lens:     LargeArea:1.5kV
# Analyzer Slit:     1:0.2x20\B:open
# Scan Mode:         FixedAnalyzerTransmission
# Curves/Scan:       1
# Values/Curve:      111
# Dwell Time:        0.8
# Excitation Energy: 1486.61
# Binding Energy:    538
# Pass Energy:       30
# Bias Voltage:      90
# Detector Voltage:  2600
# Eff. Workfunction: 4.309
# Source:            X-Ray Dummy
# Comment:           
#
# Cycle: 0
# Number of Scans: 15
#
# Cycle: 0, Curve: 0
# Acquisition Date: 08/25/22 16:06:12 UTC
#
# ColumnLabels: energy counts/s
#
538  3748
537.9  3733.1667
537.8  3765.0833
537.7  3760.6667
537.6  3757.5833
537.5  3724.8333
537.4  3703.4167
537.3  3758.1667
537.2  3710.8333
537.1  3719.8333
537  3722.1667
536.9  3741.5833
536.8  3705
536.7  3743.25
536.6  3727
536.5  3707.1667
536.4  3719.0833
536.3  3720.75
536.2  3723.5
536.1  3726.1667
536  3725.3333
535.9  3725
535.8  3701.4167
535.7  3726.5833
535.6  3746.8333
535.5  3726.8333
535.4  3697.6667
535.3  3742.3333
535.2  3744.75
535.1  3814.0833
535  3783.4167
534.9  3786.9167
534.8  3841
534.7  3865.0833
534.6  3869.9167
534.5  3859.3333
534.4  3906.1667
534.3  3964.6667
534.2  3952.5833
534.1  3966.25
534  4055.1667
533.9  4107.9167
533.8  4123.9167
533.7  4138.9167
533.6  4193.5833
533.5  4281.5
533.4  4304.5833
533.3  4418.25
533.2  4438.5833
533.1  4497.25
533  4552.0833
532.9  4663
532.8  4727.6667
532.7  4800.9167
532.6  4861
532.5  4987.3333
532.4  5086.6667
532.3  5211.4167
532.2  5340.5
532.1  5452.0833
532  5563.4167
531.9  5726.3333
531.8  5906.75
531.7  6041.8333
531.6  6153.1667
531.5  6341
531.4  6571.5833
531.3  6683.1667
531.2  6806.3333
531.1  6943
531  7108.1667
530.9  7168.5
530.8  7236.9167
530.7  7342.75
530.6  7292
530.5  7232.25
530.4  7167.75
530.3  7062.6667
530.2  6888
530.1  6660.1667
530  6422.4167
529.9  6213.9167
529.8  5932.8333
529.7  5688.1667
529.6  5462.1667
529.5  5213.75
529.4  4951.1667
529.3  4771.6667
529.2  4572.0833
529.1  4423.9167
529  4296
528.9  4136.75
528.8  4062.3333
528.7  3992.1667
528.6  3920.9167
528.5  3857.5833
528.4  3815.75
528.3  3772.4167
528.2  3732.3333
528.1  3707.75
528  3678.5833
527.9  3686.1667
527.8  3682.1667
527.7  3631.25
527.6  3658.1667
527.5  3622.25
527.4  3638.75
527.3  3625.75
527.2  3591.25
527.1  3601
527  3588.4167

