# Created by:        SpecsLab Prodigy, Version 4.60.2-r85849 
#
# XY-Serializer Export Settings:
#   Comment Prefix:           #
#   Output meta data:         yes
#   Energy Axis:              Binding Energy
#   Count Rate:               Counts per Second
#   Separate Scan Data:       no
#   Separate Channel Data:    no
#   External Channel Data:    yes
#   Transmission Function:    no
#   ErrorBar:                 no
#   Operation Results:        yes
#   Time Zone Format:         UTC
#
# Group:             Spectrum Group
#
# Region:            C1s
# Acquisition Date:  09/22/22 13:15:40 UTC
# Analysis Method:   XPS
# Analyzer:          Phoibos 100 R6
# Analyzer Lens:     LargeArea:1.5kV
# Analyzer Slit:     1:0.2x20\B:open
# Scan Mode:         FixedAnalyzerTransmission
# Curves/Scan:       1
# Values/Curve:      151
# Dwell Time:        0.8
# Excitation Energy: 1486.61
# Binding Energy:    295
# Pass Energy:       30
# Bias Voltage:      90
# Detector Voltage:  2600
# Eff. Workfunction: 4.309
# Source:            X-Ray Dummy
# Comment:           
#
# Cycle: 0
# Number of Scans: 3
#
# Cycle: 0, Curve: 0
# Acquisition Date: 09/22/22 13:15:40 UTC
#
# ColumnLabels: energy counts/s
#
295  837.08333
294.9  841.25
294.8  876.25
294.7  876.66667
294.6  900.41667
294.5  897.91667
294.4  844.16667
294.3  865
294.2  900
294.1  879.16667
294  851.25
293.9  874.58333
293.8  885
293.7  880.41667
293.6  879.58333
293.5  890.83333
293.4  850.83333
293.3  867.5
293.2  866.25
293.1  878.33333
293  850.41667
292.9  874.16667
292.8  889.58333
292.7  907.91667
292.6  867.08333
292.5  881.25
292.4  911.25
292.3  856.66667
292.2  864.58333
292.1  880.41667
292  896.66667
291.9  871.25
291.8  871.66667
291.7  869.58333
291.6  870.41667
291.5  877.5
291.4  859.16667
291.3  880
291.2  897.5
291.1  833.75
291  870
290.9  840.41667
290.8  849.16667
290.7  885.83333
290.6  891.66667
290.5  852.5
290.4  868.33333
290.3  867.08333
290.2  897.08333
290.1  862.5
290  849.16667
289.9  879.16667
289.8  859.16667
289.7  854.16667
289.6  863.33333
289.5  920.41667
289.4  872.08333
289.3  905
289.2  859.58333
289.1  882.08333
289  872.91667
288.9  885
288.8  834.16667
288.7  862.08333
288.6  866.25
288.5  846.25
288.4  875.41667
288.3  882.08333
288.2  875
288.1  895.83333
288  877.08333
287.9  867.08333
287.8  864.58333
287.7  894.16667
287.6  862.08333
287.5  866.25
287.4  863.75
287.3  844.16667
287.2  863.33333
287.1  881.66667
287  845
286.9  901.66667
286.8  873.75
286.7  862.91667
286.6  885.41667
286.5  877.08333
286.4  858.33333
286.3  899.58333
286.2  897.91667
286.1  879.58333
286  893.75
285.9  905.83333
285.8  894.58333
285.7  871.25
285.6  873.75
285.5  887.91667
285.4  901.66667
285.3  890.41667
285.2  898.75
285.1  856.25
285  893.33333
284.9  871.25
284.8  896.25
284.7  870
284.6  897.91667
284.5  894.16667
284.4  907.91667
284.3  915.41667
284.2  910.41667
284.1  892.91667
284  881.66667
283.9  866.66667
283.8  873.75
283.7  914.58333
283.6  882.5
283.5  864.16667
283.4  888.33333
283.3  867.5
283.2  889.16667
283.1  871.25
283  885
282.9  852.91667
282.8  867.91667
282.7  881.66667
282.6  874.58333
282.5  867.08333
282.4  849.16667
282.3  894.58333
282.2  865.41667
282.1  870.41667
282  858.33333
281.9  884.16667
281.8  890
281.7  852.08333
281.6  868.33333
281.5  887.08333
281.4  882.91667
281.3  879.58333
281.2  901.25
281.1  885.41667
281  876.66667
280.9  853.75
280.8  855.83333
280.7  903.75
280.6  884.16667
280.5  880.83333
280.4  856.66667
280.3  865.83333
280.2  895.83333
280.1  910.83333
280  881.66667

# Region:            O1s
# Acquisition Date:  09/22/22 13:31:55 UTC
# Analysis Method:   XPS
# Analyzer:          Phoibos 100 R6
# Analyzer Lens:     LargeArea:1.5kV
# Analyzer Slit:     1:0.2x20\B:open
# Scan Mode:         FixedAnalyzerTransmission
# Curves/Scan:       1
# Values/Curve:      111
# Dwell Time:        0.8
# Excitation Energy: 1486.61
# Binding Energy:    538
# Pass Energy:       30
# Bias Voltage:      90
# Detector Voltage:  2600
# Eff. Workfunction: 4.309
# Source:            X-Ray Dummy
# Comment:           
#
# Cycle: 0
# Number of Scans: 5
#
# Cycle: 0, Curve: 0
# Acquisition Date: 09/22/22 13:31:55 UTC
#
# ColumnLabels: energy counts/s
#
538  3563
537.9  3317.75
537.8  3362.5
537.7  3335.25
537.6  3393.75
537.5  3321
537.4  3350
537.3  3322.5
537.2  3381.5
537.1  3304.75
537  3282.75
536.9  3344.25
536.8  3336.75
536.7  3350
536.6  3346.5
536.5  3287
536.4  3383.5
536.3  3333
536.2  3358.25
536.1  3356.5
536  3319
535.9  3304.25
535.8  3267.75
535.7  3335.25
535.6  3290.75
535.5  3311.75
535.4  3301
535.3  3344
535.2  3355.75
535.1  3354.25
535  3362
534.9  3328.75
534.8  3376.75
534.7  3384.5
534.6  3370.5
534.5  3358
534.4  3394
534.3  3392.25
534.2  3362.5
534.1  3396.25
534  3418.5
533.9  3448
533.8  3451.5
533.7  3528.5
533.6  3572.75
533.5  3645.75
533.4  3601.75
533.3  3625
533.2  3750.75
533.1  3764.75
533  3880
532.9  3910
532.8  3989.75
532.7  4053
532.6  4161.5
532.5  4225.75
532.4  4379
532.3  4533.75
532.2  4620
532.1  4780
532  4955.75
531.9  5137
531.8  5343.5
531.7  5523.25
531.6  5645.25
531.5  5901.75
531.4  6027.5
531.3  6195.5
531.2  6444.75
531.1  6472.5
531  6677.5
530.9  6651.25
530.8  6736
530.7  6690
530.6  6772.75
530.5  6577
530.4  6449.25
530.3  6276.75
530.2  6076.25
530.1  5809
530  5689
529.9  5279
529.8  5063.75
529.7  4813.75
529.6  4549.5
529.5  4409.5
529.4  4244.25
529.3  4019.25
529.2  3897.5
529.1  3768
529  3635
528.9  3562
528.8  3454.5
528.7  3448.25
528.6  3367.75
528.5  3396
528.4  3308.25
528.3  3272.25
528.2  3294.75
528.1  3314.5
528  3261.25
527.9  3326.75
527.8  3235.5
527.7  3215.75
527.6  3187.75
527.5  3184.5
527.4  3213
527.3  3162.25
527.2  3195
527.1  3229.25
527  3189

# Region:            overview
# Acquisition Date:  09/22/22 12:57:07 UTC
# Analysis Method:   XPS
# Analyzer:          Phoibos 100 R6
# Analyzer Lens:     MediumArea:1.5kV
# Analyzer Slit:     1:0.2x20\B:open
# Scan Mode:         FixedAnalyzerTransmission
# Curves/Scan:       1
# Values/Curve:      1205
# Dwell Time:        0.2
# Excitation Energy: 1486.61
# Binding Energy:    1200
# Pass Energy:       50
# Bias Voltage:      90
# Detector Voltage:  2600
# Eff. Workfunction: 4.309
# Source:            X-Ray Dummy
# Comment:           
#
# Cycle: 0
# Number of Scans: 1
#
# Cycle: 0, Curve: 0
# Acquisition Date: 09/22/22 12:57:07 UTC
#
# ColumnLabels: energy counts/s
#
1200  9585
1199  9600
1198  9345
1197  9630
1196  9660
1195  9640
1194  9905
1193  9610
1192  9380
1191  10240
1190  9915
1189  9660
1188  9195
1187  9125
1186  8985
1185  9235
1184  9400
1183  8895
1182  8810
1181  8735
1180  8470
1179  9005
1178  8920
1177  8715
1176  8520
1175  8930
1174  9040
1173  8620
1172  8800
1171  8680
1170  8620
1169  8805
1168  8945
1167  8690
1166  8830
1165  8810
1164  8975
1163  8805
1162  8860
1161  8865
1160  9255
1159  8940
1158  8875
1157  9010
1156  9070
1155  9255
1154  8955
1153  8785
1152  8930
1151  8610
1150  8710
1149  8490
1148  8710
1147  8935
1146  8580
1145  8515
1144  8150
1143  7895
1142  8300
1141  7745
1140  7775
1139  8025
1138  7575
1137  7250
1136  7415
1135  7325
1134  6950
1133  7040
1132  6785
1131  6665
1130  6385
1129  6540
1128  6520
1127  6560
1126  6570
1125  6375
1124  6280
1123  6535
1122  6665
1121  6515
1120  6445
1119  6115
1118  6650
1117  6660
1116  6395
1115  6395
1114  6555
1113  6185
1112  6670
1111  6465
1110  6390
1109  6505
1108  6330
1107  6485
1106  6870
1105  6665
1104  6525
1103  6620
1102  6765
1101  6555
1100  6730
1099  6730
1098  6655
1097  7225
1096  7090
1095  6555
1094  7130
1093  7435
1092  7910
1091  7905
1090  8375
1089  9180
1088  10055
1087  10460
1086  10785
1085  10350
1084  9715
1083  9050
1082  8015
1081  8445
1080  8540
1079  8265
1078  7380
1077  6535
1076  6015
1075  5580
1074  5360
1073  5015
1072  4945
1071  5480
1070  4920
1069  4605
1068  5050
1067  5245
1066  5285
1065  4930
1064  4760
1063  4880
1062  4925
1061  5020
1060  4935
1059  4985
1058  4645
1057  4345
1056  4590
1055  4290
1054  4680
1053  4515
1052  4555
1051  4095
1050  4270
1049  4360
1048  4345
1047  4225
1046  3980
1045  4105
1044  4245
1043  4070
1042  3985
1041  4120
1040  4360
1039  4270
1038  3905
1037  4155
1036  4325
1035  4005
1034  4365
1033  4150
1032  4175
1031  4125
1030  4125
1029  4100
1028  4165
1027  4265
1026  4135
1025  4060
1024  4015
1023  3980
1022  4125
1021  4165
1020  3970
1019  4030
1018  4205
1017  4315
1016  4265
1015  4135
1014  4105
1013  4170
1012  4360
1011  4285
1010  4235
1009  4365
1008  4345
1007  4140
1006  4235
1005  4450
1004  4170
1003  4325
1002  4145
1001  4320
1000  4365
999  4240
998  4455
997  4140
996  4270
995  4330
994  4270
993  4215
992  4195
991  4410
990  4215
989  3980
988  4180
987  4075
986  4205
985  3790
984  4095
983  4405
982  4065
981  4000
980  4275
979  4110
978  4020
977  4825
976  4720
975  5165
974  4900
973  4720
972  4295
971  4220
970  4170
969  3880
968  4010
967  3935
966  3995
965  3975
964  3805
963  3555
962  3695
961  3655
960  3560
959  3600
958  3495
957  3705
956  4125
955  3485
954  3800
953  3850
952  3555
951  3870
950  3980
949  3720
948  3635
947  3755
946  3685
945  3835
944  3710
943  3700
942  3980
941  3875
940  3810
939  3895
938  3925
937  3785
936  3725
935  3680
934  3785
933  3715
932  3645
931  3840
930  3850
929  3750
928  3610
927  3790
926  3545
925  3880
924  3735
923  3725
922  3995
921  3785
920  3720
919  3840
918  3795
917  3700
916  3715
915  3785
914  3745
913  3740
912  3835
911  3770
910  3480
909  3980
908  3700
907  3905
906  3640
905  3725
904  3715
903  3875
902  3800
901  3800
900  4005
899  3700
898  4120
897  3855
896  3800
895  3860
894  3755
893  3855
892  3915
891  3780
890  3850
889  3795
888  3675
887  3780
886  3810
885  3840
884  3765
883  3535
882  3745
881  3970
880  3690
879  3670
878  3495
877  3775
876  3745
875  3600
874  3930
873  3835
872  3840
871  4145
870  4260
869  3720
868  3840
867  3775
866  3885
865  3670
864  3935
863  3770
862  3410
861  3670
860  3940
859  3545
858  3900
857  3710
856  3795
855  3860
854  3915
853  3705
852  3865
851  3925
850  4150
849  3895
848  3840
847  3845
846  3710
845  3790
844  3890
843  4010
842  3870
841  4045
840  3885
839  3995
838  3825
837  3755
836  4035
835  3920
834  3880
833  4130
832  3925
831  4410
830  4235
829  4400
828  4310
827  4410
826  4440
825  4185
824  4210
823  4165
822  4240
821  3975
820  3860
819  3930
818  3835
817  3785
816  3970
815  3940
814  3810
813  3730
812  3865
811  3720
810  3640
809  3770
808  3745
807  3645
806  3695
805  3655
804  4225
803  3700
802  3725
801  3960
800  3760
799  4025
798  3810
797  3940
796  3765
795  3770
794  3680
793  3870
792  3755
791  3880
790  3795
789  3650
788  3870
787  3900
786  3645
785  3940
784  3845
783  3925
782  3885
781  3840
780  3720
779  3830
778  4175
777  4120
776  3925
775  3735
774  3865
773  3890
772  3760
771  3755
770  3870
769  4095
768  3780
767  4065
766  3895
765  3765
764  3900
763  3865
762  4255
761  4045
760  4185
759  3935
758  4115
757  4190
756  3835
755  3825
754  4270
753  4070
752  4015
751  3945
750  4045
749  3980
748  4085
747  4020
746  3945
745  4130
744  4110
743  3750
742  4035
741  4115
740  4230
739  4120
738  4045
737  4040
736  4085
735  4190
734  4160
733  4170
732  4065
731  4215
730  4120
729  4245
728  3810
727  4230
726  4155
725  4195
724  4350
723  4210
722  4295
721  4485
720  4300
719  4445
718  4505
717  4375
716  4495
715  4580
714  4350
713  4370
712  4215
711  4255
710  4385
709  4235
708  4725
707  4960
706  5440
705  5875
704  5975
703  5295
702  4925
701  4845
700  4385
699  4145
698  4290
697  4210
696  4445
695  3910
694  4365
693  4390
692  4050
691  4225
690  4235
689  4405
688  4340
687  4005
686  4125
685  4170
684  4330
683  4250
682  4145
681  4150
680  4285
679  4125
678  4185
677  4210
676  3950
675  4180
674  4075
673  4295
672  4380
671  4430
670  5220
669  5835
668  7130
667  7910
666  7545
665  7090
664  5820
663  4850
662  4495
661  4220
660  3865
659  3815
658  3805
657  4055
656  3955
655  3870
654  3830
653  3595
652  3505
651  3505
650  3595
649  3525
648  3765
647  3570
646  3600
645  3470
644  3555
643  3325
642  3385
641  3310
640  3600
639  3565
638  3385
637  3395
636  3565
635  3515
634  3365
633  3255
632  3455
631  3575
630  3630
629  3440
628  3610
627  3420
626  3475
625  3565
624  3445
623  3415
622  3470
621  3660
620  3510
619  3895
618  3575
617  3470
616  3700
615  3765
614  3560
613  3530
612  3615
611  3860
610  3725
609  3365
608  3920
607  3795
606  3425
605  3815
604  3825
603  3495
602  3565
601  3420
600  3585
599  3615
598  3500
597  3795
596  3725
595  3635
594  3620
593  3985
592  3675
591  3615
590  3700
589  3585
588  3835
587  3450
586  3785
585  3795
584  3655
583  3730
582  3675
581  3745
580  3525
579  3690
578  3435
577  3835
576  3635
575  3505
574  4090
573  3845
572  3680
571  3685
570  3665
569  3760
568  4070
567  3825
566  3550
565  3610
564  3815
563  3760
562  3860
561  3900
560  4105
559  3960
558  3990
557  3855
556  3930
555  3975
554  3990
553  4190
552  3735
551  4185
550  5760
549  3910
548  3935
547  4050
546  3885
545  4075
544  3775
543  3745
542  3765
541  3835
540  3790
539  3640
538  3860
537  3470
536  3740
535  3740
534  3685
533  4310
532  5640
531  7300
530  6755
529  4920
528  3855
527  3860
526  3695
525  3560
524  3660
523  3940
522  3775
521  4130
520  3895
519  3790
518  3765
517  3760
516  3550
515  3530
514  3740
513  3775
512  3910
511  3485
510  3650
509  3470
508  3505
507  3625
506  3955
505  3600
504  3735
503  3655
502  3780
501  3800
500  3805
499  3720
498  3785
497  4075
496  4380
495  4500
494  4060
493  3740
492  3560
491  3640
490  3775
489  3720
488  4320
487  4585
486  4385
485  3830
484  3635
483  3800
482  3645
481  3635
480  3595
479  3580
478  3625
477  3745
476  3755
475  3590
474  3970
473  3845
472  3850
471  3830
470  4035
469  3865
468  4015
467  3905
466  3750
465  3960
464  4145
463  4245
462  3975
461  3735
460  3845
459  4055
458  3695
457  3690
456  4150
455  5395
454  9205
453  14230
452  12965
451  6605
450  3555
449  3495
448  4250
447  7575
446  14670
445  19255
444  12355
443  5440
442  3230
441  2570
440  2240
439  1830
438  1805
437  2085
436  2780
435  2870
434  2595
433  2155
432  1815
431  1505
430  1300
429  1345
428  1275
427  1270
426  1300
425  1435
424  1225
423  1235
422  1320
421  1245
420  1115
419  1190
418  1170
417  1120
416  1070
415  1375
414  1110
413  1325
412  1380
411  1275
410  1175
409  1175
408  1200
407  1205
406  1260
405  1255
404  1205
403  1140
402  1220
401  1235
400  1220
399  1090
398  1270
397  1215
396  1215
395  1230
394  1300
393  1125
392  1210
391  1270
390  1255
389  1210
388  1240
387  1255
386  1310
385  1205
384  1335
383  1495
382  1215
381  1270
380  1225
379  1390
378  1320
377  1330
376  1300
375  1285
374  1410
373  1235
372  1230
371  1315
370  1165
369  1115
368  1220
367  1210
366  1150
365  1190
364  1075
363  1020
362  1195
361  1180
360  1250
359  1165
358  1115
357  1115
356  1095
355  1070
354  1250
353  1070
352  1230
351  1080
350  1165
349  1135
348  1100
347  1135
346  1195
345  1225
344  1095
343  1105
342  1160
341  1165
340  1215
339  1105
338  1295
337  980
336  1290
335  1035
334  1075
333  1260
332  1125
331  1175
330  1185
329  1325
328  1105
327  1145
326  1145
325  1250
324  1160
323  1245
322  1205
321  1180
320  1080
319  1205
318  1190
317  1305
316  1220
315  1130
314  1385
313  1270
312  1135
311  1115
310  1185
309  1190
308  1135
307  1175
306  1180
305  1210
304  1125
303  1185
302  1210
301  1260
300  1225
299  1205
298  1155
297  1370
296  1150
295  1245
294  1265
293  1240
292  1290
291  1025
290  1060
289  1180
288  1165
287  1240
286  1290
285  1180
284  1255
283  1215
282  1215
281  1235
280  1100
279  1215
278  1225
277  1340
276  1185
275  1275
274  1360
273  1250
272  1280
271  1240
270  1265
269  1105
268  1355
267  1205
266  1185
265  1245
264  1175
263  1275
262  1215
261  1240
260  1255
259  1170
258  1265
257  1105
256  1205
255  1130
254  1200
253  1195
252  1045
251  1255
250  1125
249  1380
248  1280
247  1310
246  1255
245  1395
244  1355
243  1225
242  1125
241  1270
240  1200
239  1200
238  1310
237  1305
236  1315
235  1185
234  1210
233  1380
232  1285
231  1270
230  1240
229  1240
228  1205
227  1235
226  1170
225  1295
224  1235
223  1265
222  1240
221  1210
220  1200
219  1210
218  1225
217  1215
216  1135
215  1105
214  1225
213  1200
212  1270
211  1295
210  1185
209  1190
208  1275
207  1205
206  1190
205  1355
204  1355
203  1220
202  1495
201  1200
200  1265
199  1105
198  1310
197  1250
196  1265
195  1230
194  1240
193  1280
192  1115
191  1260
190  1270
189  1215
188  1155
187  1290
186  1285
185  1250
184  1305
183  1280
182  1180
181  1305
180  1305
179  1270
178  1315
177  1355
176  1320
175  1315
174  1280
173  1375
172  1420
171  1300
170  1140
169  1205
168  1395
167  1345
166  1390
165  1425
164  1285
163  1400
162  1215
161  1395
160  1475
159  1300
158  1280
157  1150
156  1330
155  1430
154  1275
153  1140
152  1230
151  1290
150  1340
149  1460
148  1295
147  1335
146  1345
145  1285
144  1240
143  1365
142  1410
141  1340
140  1555
139  1260
138  1310
137  1265
136  1410
135  1340
134  1395
133  1295
132  1405
131  1340
130  1460
129  1305
128  1475
127  1575
126  1500
125  1655
124  1785
123  1560
122  1475
121  1375
120  1430
119  1440
118  1425
117  1465
116  1380
115  1130
114  1410
113  1220
112  1535
111  1375
110  1285
109  1360
108  1280
107  1300
106  1495
105  1210
104  1395
103  1400
102  1235
101  1275
100  1385
99  1455
98  1330
97  1525
96  1420
95  1515
94  1550
93  1460
92  1545
91  1530
90  1640
89  1725
88  1500
87  1645
86  1445
85  1605
84  1665
83  1760
82  1670
81  1750
80  1705
79  1645
78  1750
77  1570
76  1630
75  1530
74  1385
73  1270
72  1235
71  1290
70  1170
69  1060
68  1160
67  1250
66  1140
65  1100
64  1115
63  1010
62  910
61  1160
60  950
59  1110
58  1045
57  1050
56  1110
55  1055
54  935
53  970
52  1070
51  1040
50  1135
49  1040
48  1090
47  1120
46  1060
45  1095
44  1045
43  1015
42  975
41  955
40  1020
39  1075
38  965
37  1085
36  1065
35  1035
34  1055
33  1090
32  1030
31  960
30  1065
29  1015
28  1125
27  1225
26  1220
25  1195
24  1025
23  1035
22  1345
21  1585
20  2560
19  3920
18  3400
17  2135
16  1080
15  900
14  695
13  655
12  720
11  805
10  830
9  1115
8  1075
7  940
6  820
5  805
4  740
3  770
2  555
1  590
-2.2737368e-013  570
-1  650
-2  680
-3  640
-4  605

# Region:            In3d
# Acquisition Date:  09/22/22 13:00:29 UTC
# Analysis Method:   XPS
# Analyzer:          Phoibos 100 R6
# Analyzer Lens:     LargeArea:1.5kV
# Analyzer Slit:     1:0.2x20\B:open
# Scan Mode:         FixedAnalyzerTransmission
# Curves/Scan:       1
# Values/Curve:      231
# Dwell Time:        0.8
# Excitation Energy: 1486.61
# Binding Energy:    460
# Pass Energy:       30
# Bias Voltage:      90
# Detector Voltage:  2600
# Eff. Workfunction: 4.309
# Source:            X-Ray Dummy
# Comment:           
#
# Cycle: 0
# Number of Scans: 1
#
# Cycle: 0, Curve: 0
# Acquisition Date: 09/22/22 13:00:29 UTC
#
# ColumnLabels: energy counts/s
#
460  3055
459.9  3072.5
459.8  3068.75
459.7  2995
459.6  3060
459.5  3040
459.4  2930
459.3  3052.5
459.2  3082.5
459.1  3028.75
459  3095
458.9  3058.75
458.8  3083.75
458.7  3046.25
458.6  3076.25
458.5  3161.25
458.4  3100
458.3  3090
458.2  2896.25
458.1  3090
458  2898.75
457.9  3131.25
457.8  3053.75
457.7  3102.5
457.6  3045
457.5  3165
457.4  3106.25
457.3  3055
457.2  3060
457.1  3143.75
457  3113.75
456.9  3178.75
456.8  3097.5
456.7  3250
456.6  3158.75
456.5  3091.25
456.4  3323.75
456.3  3343.75
456.2  3225
456.1  3355
456  3386.25
455.9  3530
455.8  3571.25
455.7  3720
455.6  3643.75
455.5  3807.5
455.4  3923.75
455.3  4182.5
455.2  4241.25
455.1  4397.5
455  4558.75
454.9  4831.25
454.8  4953.75
454.7  5143.75
454.6  5453.75
454.5  5827.5
454.4  6276.25
454.3  6566.25
454.2  6882.5
454.1  7392.5
454  7785
453.9  8227.5
453.8  8881.25
453.7  9270
453.6  9807.5
453.5  10202.5
453.4  10760
453.3  11333.75
453.2  11790
453.1  12090
453  12467.5
452.9  12501.25
452.8  12561.25
452.7  12375
452.6  12318.75
452.5  12301.25
452.4  12041.25
452.3  11145
452.2  11023.75
452.1  10208.75
452  9478.75
451.9  9061.25
451.8  7921.25
451.7  7167.5
451.6  6655
451.5  6123.75
451.4  5466.25
451.3  5020
451.2  4365
451.1  4160
451  3781.25
450.9  3501.25
450.8  3425
450.7  3143.75
450.6  3082.5
450.5  3051.25
450.4  2965
450.3  2790
450.2  2776.25
450.1  2670
450  2651.25
449.9  2726.25
449.8  2618.75
449.7  2557.5
449.6  2540
449.5  2650
449.4  2636.25
449.3  2652.5
449.2  2540
449.1  2708.75
449  2763.75
448.9  2600
448.8  2700
448.7  2838.75
448.6  2917.5
448.5  2826.25
448.4  2955
448.3  3103.75
448.2  3206.25
448.1  3280
448  3515
447.9  3605
447.8  3786.25
447.7  4058.75
447.6  4291.25
447.5  4672.5
447.4  4898.75
447.3  5168.75
447.2  5502.5
447.1  5982.5
447  6365
446.9  6970
446.8  7361.25
446.7  7978.75
446.6  8580
446.5  9155
446.4  9803.75
446.3  10706.25
446.2  11331.25
446.1  11971.25
446  12610
445.9  13556.25
445.8  13895
445.7  15021.25
445.6  15547.5
445.5  15993.75
445.4  16030
445.3  16386.25
445.2  16470
445.1  16227.5
445  16152.5
444.9  15856.25
444.8  15331.25
444.7  14558.75
444.6  13666.25
444.5  12755
444.4  11540
444.3  10616.25
444.2  9887.5
444.1  8542.5
444  7720
443.9  7066.25
443.8  6016.25
443.7  5513.75
443.6  5105
443.5  4542.5
443.4  4256.25
443.3  3905
443.2  3692.5
443.1  3451.25
443  3353.75
442.9  3193.75
442.8  3192.5
442.7  2871.25
442.6  2891.25
442.5  2718.75
442.4  2732.5
442.3  2548.75
442.2  2488.75
442.1  2397.5
442  2407.5
441.9  2370
441.8  2271.25
441.7  2176.25
441.6  2141.25
441.5  2096.25
441.4  2175
441.3  2077.5
441.2  1917.5
441.1  2021.25
441  1988.75
440.9  1831.25
440.8  1926.25
440.7  1832.5
440.6  1830
440.5  1791.25
440.4  1810
440.3  1742.5
440.2  1752.5
440.1  1762.5
440  1755
439.9  1625
439.8  1652.5
439.7  1612.5
439.6  1608.75
439.5  1546.25
439.4  1541.25
439.3  1536.25
439.2  1580
439.1  1517.5
439  1482.5
438.9  1358.75
438.8  1378.75
438.7  1436.25
438.6  1441.25
438.5  1312.5
438.4  1342.5
438.3  1413.75
438.2  1463.75
438.1  1443.75
438  1451.25
437.9  1395
437.8  1500
437.7  1512.5
437.6  1426.25
437.5  1525
437.4  1526.25
437.3  1457.5
437.2  1521.25
437.1  1671.25
437  1603.75

# Region:            Sn3d
# Acquisition Date:  09/22/22 13:03:37 UTC
# Analysis Method:   XPS
# Analyzer:          Phoibos 100 R6
# Analyzer Lens:     LargeArea:1.5kV
# Analyzer Slit:     1:0.2x20\B:open
# Scan Mode:         FixedAnalyzerTransmission
# Curves/Scan:       1
# Values/Curve:      231
# Dwell Time:        0.8
# Excitation Energy: 1486.61
# Binding Energy:    503
# Pass Energy:       30
# Bias Voltage:      90
# Detector Voltage:  2600
# Eff. Workfunction: 4.309
# Source:            X-Ray Dummy
# Comment:           
#
# Cycle: 0
# Number of Scans: 1
#
# Cycle: 0, Curve: 0
# Acquisition Date: 09/22/22 13:03:37 UTC
#
# ColumnLabels: energy counts/s
#
503  3137.5
502.9  3116.25
502.8  3110
502.7  3115
502.6  3071.25
502.5  3198.75
502.4  3151.25
502.3  3102.5
502.2  3071.25
502.1  3160
502  2987.5
501.9  3035
501.8  3140
501.7  3171.25
501.6  3166.25
501.5  3145
501.4  3093.75
501.3  3077.5
501.2  3096.25
501.1  3086.25
501  3080
500.9  3066.25
500.8  3170
500.7  3186.25
500.6  3068.75
500.5  3106.25
500.4  3088.75
500.3  3136.25
500.2  3248.75
500.1  3088.75
500  3173.75
499.9  3106.25
499.8  3103.75
499.7  3130
499.6  3051.25
499.5  3165
499.4  3140
499.3  3103.75
499.2  3160
499.1  3002.5
499  3123.75
498.9  3162.5
498.8  3115
498.7  3115
498.6  3240
498.5  3197.5
498.4  3172.5
498.3  3158.75
498.2  3206.25
498.1  3150
498  3215
497.9  3236.25
497.8  3235
497.7  3247.5
497.6  3295
497.5  3296.25
497.4  3297.5
497.3  3328.75
497.2  3322.5
497.1  3292.5
497  3427.5
496.9  3330
496.8  3493.75
496.7  3516.25
496.6  3542.5
496.5  3547.5
496.4  3637.5
496.3  3592.5
496.2  3633.75
496.1  3543.75
496  3725
495.9  3795
495.8  3622.5
495.7  3778.75
495.6  3720
495.5  3660
495.4  3581.25
495.3  3612.5
495.2  3701.25
495.1  3440
495  3762.5
494.9  3561.25
494.8  3513.75
494.7  3432.5
494.6  3482.5
494.5  3473.75
494.4  3371.25
494.3  3351.25
494.2  3353.75
494.1  3167.5
494  3208.75
493.9  3170
493.8  3058.75
493.7  3161.25
493.6  3088.75
493.5  3105
493.4  2985
493.3  3173.75
493.2  3011.25
493.1  2978.75
493  3112.5
492.9  3056.25
492.8  3195
492.7  2992.5
492.6  3038.75
492.5  3101.25
492.4  3075
492.3  3031.25
492.2  3061.25
492.1  3065
492  3075
491.9  2948.75
491.8  3046.25
491.7  2970
491.6  3023.75
491.5  3190
491.4  3000
491.3  3050
491.2  3011.25
491.1  3043.75
491  2978.75
490.9  3052.5
490.8  3117.5
490.7  3065
490.6  3090
490.5  3125
490.4  3012.5
490.3  3215
490.2  3015
490.1  3113.75
490  3055
489.9  2985
489.8  3098.75
489.7  3095
489.6  3167.5
489.5  3238.75
489.4  3606.25
489.3  3151.25
489.2  3268.75
489.1  3266.25
489  3391.25
488.9  3332.5
488.8  3326.25
488.7  3411.25
488.6  3500
488.5  3586.25
488.4  3297.5
488.3  3575
488.2  3575
488.1  3668.75
488  3732.5
487.9  3622.5
487.8  3873.75
487.7  3653.75
487.6  3921.25
487.5  3703.75
487.4  3795
487.3  3941.25
487.2  3968.75
487.1  3875
487  3985
486.9  3892.5
486.8  3957.5
486.7  3896.25
486.6  3716.25
486.5  3732.5
486.4  3725
486.3  3493.75
486.2  3590
486.1  3455
486  3553.75
485.9  3503.75
485.8  3375
485.7  3273.75
485.6  3235
485.5  3292.5
485.4  3166.25
485.3  3131.25
485.2  3175
485.1  3118.75
485  3183.75
484.9  3143.75
484.8  3056.25
484.7  3045
484.6  3091.25
484.5  3005
484.4  3046.25
484.3  3075
484.2  3021.25
484.1  3028.75
484  2950
483.9  3072.5
483.8  3037.5
483.7  2996.25
483.6  2967.5
483.5  3033.75
483.4  3105
483.3  3067.5
483.2  3080
483.1  3077.5
483  2988.75
482.9  2832.5
482.8  2982.5
482.7  3035
482.6  3013.75
482.5  3181.25
482.4  2981.25
482.3  3072.5
482.2  2906.25
482.1  2946.25
482  2915
481.9  2978.75
481.8  3030
481.7  3021.25
481.6  2975
481.5  2982.5
481.4  3096.25
481.3  2925
481.2  3017.5
481.1  2962.5
481  2940
480.9  3051.25
480.8  3028.75
480.7  2958.75
480.6  2865
480.5  2980
480.4  2985
480.3  3116.25
480.2  3077.5
480.1  3021.25
480  2940

# Region:            Si2p
# Acquisition Date:  09/22/22 13:17:02 UTC
# Analysis Method:   XPS
# Analyzer:          Phoibos 100 R6
# Analyzer Lens:     LargeArea:1.5kV
# Analyzer Slit:     1:0.2x20\B:open
# Scan Mode:         FixedAnalyzerTransmission
# Curves/Scan:       1
# Values/Curve:      101
# Dwell Time:        0.8
# Excitation Energy: 1486.61
# Binding Energy:    110
# Pass Energy:       30
# Bias Voltage:      90
# Detector Voltage:  2600
# Eff. Workfunction: 4.309
# Source:            X-Ray Dummy
# Comment:           
#
# Cycle: 0
# Number of Scans: 3
#
# Cycle: 0, Curve: 0
# Acquisition Date: 09/22/22 13:17:02 UTC
#
# ColumnLabels: energy counts/s
#
110  878.33333
109.9  850.83333
109.8  896.25
109.7  840.41667
109.6  882.08333
109.5  873.33333
109.4  896.66667
109.3  912.5
109.2  909.58333
109.1  883.33333
109  884.58333
108.9  874.16667
108.8  896.66667
108.7  871.25
108.6  882.5
108.5  912.08333
108.4  875
108.3  901.66667
108.2  841.25
108.1  870.83333
108  872.08333
107.9  896.25
107.8  880
107.7  895.41667
107.6  903.75
107.5  881.66667
107.4  885.83333
107.3  918.75
107.2  910.41667
107.1  873.75
107  912.91667
106.9  898.75
106.8  877.91667
106.7  870.83333
106.6  880
106.5  889.58333
106.4  894.58333
106.3  868.75
106.2  857.5
106.1  888.33333
106  891.66667
105.9  870.41667
105.8  874.58333
105.7  907.91667
105.6  910.41667
105.5  896.66667
105.4  899.16667
105.3  917.5
105.2  853.33333
105.1  895.83333
105  893.33333
104.9  897.08333
104.8  916.66667
104.7  906.66667
104.6  862.5
104.5  877.5
104.4  911.66667
104.3  917.91667
104.2  922.08333
104.1  938.33333
104  906.66667
103.9  918.33333
103.8  893.75
103.7  900.41667
103.6  903.75
103.5  894.58333
103.4  838.75
103.3  913.33333
103.2  890
103.1  882.5
103  900.83333
102.9  902.5
102.8  893.75
102.7  915.83333
102.6  927.5
102.5  850.83333
102.4  893.33333
102.3  907.5
102.2  935
102.1  880.83333
102  888.33333
101.9  892.5
101.8  902.08333
101.7  936.66667
101.6  907.5
101.5  883.33333
101.4  903.33333
101.3  898.75
101.2  902.91667
101.1  892.08333
101  902.5
100.9  905.83333
100.8  915.83333
100.7  900
100.6  932.5
100.5  897.08333
100.4  927.5
100.3  895
100.2  911.25
100.1  907.5
100  869.58333

# Region:            N1s
# Acquisition Date:  09/22/22 13:35:12 UTC
# Analysis Method:   XPS
# Analyzer:          Phoibos 100 R6
# Analyzer Lens:     LargeArea:1.5kV
# Analyzer Slit:     1:0.2x20\B:open
# Scan Mode:         FixedAnalyzerTransmission
# Curves/Scan:       1
# Values/Curve:      121
# Dwell Time:        0.8
# Excitation Energy: 1486.61
# Binding Energy:    409
# Pass Energy:       30
# Bias Voltage:      90
# Detector Voltage:  2600
# Eff. Workfunction: 4.309
# Source:            X-Ray Dummy
# Comment:           
#
# Cycle: 0
# Number of Scans: 8
#
# Cycle: 0, Curve: 0
# Acquisition Date: 09/22/22 13:35:12 UTC
#
# ColumnLabels: energy counts/s
#
409  987.03125
408.9  970
408.8  973.4375
408.7  989.375
408.6  967.5
408.5  964.84375
408.4  963.28125
408.3  970.3125
408.2  984.375
408.1  986.5625
408  972.5
407.9  965.46875
407.8  985.3125
407.7  984.84375
407.6  969.0625
407.5  994.53125
407.4  964.6875
407.3  964.375
407.2  989.6875
407.1  974.375
407  965
406.9  973.4375
406.8  1002.8125
406.7  971.5625
406.6  981.5625
406.5  982.03125
406.4  969.53125
406.3  976.5625
406.2  996.40625
406.1  969.0625
406  999.21875
405.9  974.6875
405.8  988.4375
405.7  987.96875
405.6  1005.3125
405.5  987.34375
405.4  965.78125
405.3  975.625
405.2  976.40625
405.1  965.15625
405  993.4375
404.9  991.5625
404.8  996.71875
404.7  985.9375
404.6  971.40625
404.5  997.1875
404.4  967.65625
404.3  1003.125
404.2  976.25
404.1  985.9375
404  972.65625
403.9  990.15625
403.8  976.5625
403.7  980.15625
403.6  1007.9688
403.5  994.375
403.4  972.96875
403.3  968.125
403.2  991.875
403.1  1009.8438
403  979.6875
402.9  986.40625
402.8  957.8125
402.7  997.1875
402.6  982.96875
402.5  968.59375
402.4  997.1875
402.3  988.59375
402.2  971.09375
402.1  996.40625
402  988.4375
401.9  1004.6875
401.8  994.6875
401.7  1002.3438
401.6  996.09375
401.5  995.46875
401.4  979.6875
401.3  986.25
401.2  998.125
401.1  1013.125
401  1004.8438
400.9  990.15625
400.8  986.5625
400.7  996.875
400.6  1007.1875
400.5  1016.5625
400.4  999.21875
400.3  980
400.2  1015.4688
400.1  979.0625
400  998.75
399.9  976.71875
399.8  1022.8125
399.7  1020.4688
399.6  983.125
399.5  1006.7188
399.4  1013.2813
399.3  985.46875
399.2  973.59375
399.1  1003.5938
399  1014.6875
398.9  999.6875
398.8  996.25
398.7  996.25
398.6  985
398.5  985.3125
398.4  975.3125
398.3  992.96875
398.2  989.0625
398.1  971.09375
398  997.03125
397.9  986.40625
397.8  990.9375
397.7  978.28125
397.6  981.25
397.5  983.75
397.4  981.5625
397.3  991.09375
397.2  979.84375
397.1  965.625
397  994.21875

# Region:            Si2s
# Acquisition Date:  09/22/22 13:18:00 UTC
# Analysis Method:   XPS
# Analyzer:          Phoibos 100 R6
# Analyzer Lens:     LargeArea:1.5kV
# Analyzer Slit:     1:0.2x20\B:open
# Scan Mode:         FixedAnalyzerTransmission
# Curves/Scan:       1
# Values/Curve:      71
# Dwell Time:        0.8
# Excitation Energy: 1486.61
# Binding Energy:    157
# Pass Energy:       30
# Bias Voltage:      90
# Detector Voltage:  2600
# Eff. Workfunction: 4.309
# Source:            X-Ray Dummy
# Comment:           
#
# Cycle: 0
# Number of Scans: 3
#
# Cycle: 0, Curve: 0
# Acquisition Date: 09/22/22 13:18:00 UTC
#
# ColumnLabels: energy counts/s
#
157  902.91667
156.9  904.58333
156.8  865.41667
156.7  908.75
156.6  907.08333
156.5  890.41667
156.4  907.5
156.3  921.25
156.2  879.16667
156.1  879.16667
156  919.58333
155.9  917.91667
155.8  935.83333
155.7  910
155.6  904.16667
155.5  887.08333
155.4  898.75
155.3  890.83333
155.2  867.91667
155.1  919.58333
155  880
154.9  907.08333
154.8  944.58333
154.7  881.66667
154.6  904.16667
154.5  914.16667
154.4  889.58333
154.3  875.41667
154.2  874.58333
154.1  870.83333
154  882.5
153.9  875.83333
153.8  878.75
153.7  875
153.6  857.08333
153.5  857.08333
153.4  884.58333
153.3  904.58333
153.2  890
153.1  879.16667
153  880
152.9  899.58333
152.8  898.75
152.7  906.66667
152.6  879.58333
152.5  886.25
152.4  914.16667
152.3  849.58333
152.2  899.16667
152.1  915
152  902.91667
151.9  882.91667
151.8  878.33333
151.7  865.83333
151.6  881.66667
151.5  891.66667
151.4  910.41667
151.3  907.91667
151.2  877.08333
151.1  886.66667
151  854.16667
150.9  879.16667
150.8  899.58333
150.7  917.91667
150.6  871.25
150.5  905.83333
150.4  867.91667
150.3  902.91667
150.2  864.58333
150.1  908.33333
150  873.33333

