# Created by:        SpecsLab Prodigy, Version 4.60.2-r85849 
#
# XY-Serializer Export Settings:
#   Comment Prefix:           #
#   Output meta data:         yes
#   Energy Axis:              Binding Energy
#   Count Rate:               Counts per Second
#   Separate Scan Data:       no
#   Separate Channel Data:    no
#   External Channel Data:    yes
#   Transmission Function:    no
#   ErrorBar:                 no
#   Operation Results:        yes
#   Time Zone Format:         UTC
#
# Group:             Spectrum Group
#
# Region:            Ba3d
# Acquisition Date:  09/23/22 12:29:18 UTC
# Analysis Method:   XPS
# Analyzer:          Phoibos 100 R6
# Analyzer Lens:     LargeArea:1.5kV
# Analyzer Slit:     1:0.2x20\B:open
# Scan Mode:         FixedAnalyzerTransmission
# Curves/Scan:       1
# Values/Curve:      121
# Dwell Time:        0.8
# Excitation Energy: 1486.61
# Binding Energy:    789
# Pass Energy:       30
# Bias Voltage:      90
# Detector Voltage:  2600
# Eff. Workfunction: 4.309
# Source:            X-Ray Dummy
# Comment:           
#
# Cycle: 0
# Number of Scans: 2
#
# Cycle: 0, Curve: 0
# Acquisition Date: 09/23/22 12:29:18 UTC
#
# ColumnLabels: energy counts/s
#
789  4962.5
788.9  4905
788.8  4933.75
788.7  4926.25
788.6  4873.125
788.5  4964.375
788.4  4970
788.3  4856.875
788.2  4940.625
788.1  4828.75
788  5026.25
787.9  4917.5
787.8  4900
787.7  4876.25
787.6  4941.875
787.5  4971.25
787.4  5100
787.3  5030.625
787.2  5024.375
787.1  5044.375
787  4966.875
786.9  5013.125
786.8  4906.875
786.7  4963.125
786.6  4977.5
786.5  5035
786.4  4915
786.3  4926.25
786.2  5017.5
786.1  4963.75
786  4946.25
785.9  5007.5
785.8  4928.125
785.7  4993.125
785.6  4880.625
785.5  5011.875
785.4  5019.375
785.3  4838.75
785.2  4946.25
785.1  4964.375
785  4998.75
784.9  4995.625
784.8  5056.875
784.7  5038.75
784.6  4956.25
784.5  5115
784.4  5050.625
784.3  4966.25
784.2  5007.5
784.1  5093.75
784  5063.75
783.9  5119.375
783.8  4963.125
783.7  5207.5
783.6  5287.5
783.5  5270.625
783.4  5315.625
783.3  5465
783.2  5471.25
783.1  5555.625
783  5661.25
782.9  5833.125
782.8  5934.375
782.7  5986.875
782.6  6111.25
782.5  6345
782.4  6508.125
782.3  6558.75
782.2  6771.25
782.1  6863.75
782  6919.375
781.9  6986.25
781.8  7198.125
781.7  7168.75
781.6  7279.375
781.5  7148.125
781.4  7209.375
781.3  7133.75
781.2  7130
781.1  7053.75
781  7053.75
780.9  6839.375
780.8  6645
780.7  6544.375
780.6  6265.625
780.5  6064.375
780.4  5923.125
780.3  5969.375
780.2  5858.125
780.1  5570
780  5410.625
779.9  5423.125
779.8  5341.25
779.7  5225.625
779.6  5236.25
779.5  5078.75
779.4  5093.75
779.3  5010
779.2  4993.125
779.1  5131.25
779  5026.25
778.9  4860.625
778.8  4930.625
778.7  4951.875
778.6  4866.875
778.5  4865
778.4  4896.875
778.3  4884.375
778.2  4866.25
778.1  4831.25
778  4811.875
777.9  4784.375
777.8  4888.125
777.7  4761.25
777.6  4758.125
777.5  4837.5
777.4  4841.875
777.3  4826.25
777.2  4765
777.1  4759.375
777  4821.875

# Region:            N1s
# Acquisition Date:  09/23/22 12:59:14 UTC
# Analysis Method:   XPS
# Analyzer:          Phoibos 100 R6
# Analyzer Lens:     LargeArea:1.5kV
# Analyzer Slit:     1:0.2x20\B:open
# Scan Mode:         FixedAnalyzerTransmission
# Curves/Scan:       1
# Values/Curve:      121
# Dwell Time:        0.8
# Excitation Energy: 1486.61
# Binding Energy:    409
# Pass Energy:       30
# Bias Voltage:      90
# Detector Voltage:  2600
# Eff. Workfunction: 4.309
# Source:            X-Ray Dummy
# Comment:           
#
# Cycle: 0
# Number of Scans: 10
#
# Cycle: 0, Curve: 0
# Acquisition Date: 09/23/22 12:59:14 UTC
#
# ColumnLabels: energy counts/s
#
409  1008.75
408.9  992.125
408.8  997.75
408.7  1017.75
408.6  1010.875
408.5  1018.5
408.4  994.125
408.3  1002.5
408.2  1005.375
408.1  1018.25
408  1004
407.9  980.75
407.8  1024.875
407.7  1003.5
407.6  1004.375
407.5  1006.625
407.4  996.25
407.3  1005.25
407.2  1033.75
407.1  1024
407  1016.375
406.9  997.5
406.8  1011
406.7  998.875
406.6  1018.875
406.5  1011.5
406.4  983.875
406.3  1011.25
406.2  1021.25
406.1  1009.5
406  998.375
405.9  1016.625
405.8  1013.625
405.7  998.375
405.6  1024.25
405.5  1009.875
405.4  1006.375
405.3  1010
405.2  1001.25
405.1  1004.375
405  1035.125
404.9  1010.875
404.8  1025.125
404.7  1018.875
404.6  1007.125
404.5  995.625
404.4  997
404.3  1027.875
404.2  1001.25
404.1  1026.5
404  1024.25
403.9  1027.875
403.8  1017.625
403.7  1013.75
403.6  1039.75
403.5  1003.375
403.4  1017.875
403.3  1010.375
403.2  1025.625
403.1  1032.875
403  1024.875
402.9  1029.375
402.8  1037.125
402.7  1030.125
402.6  1031.375
402.5  1020.625
402.4  1021.875
402.3  1017.625
402.2  1020.125
402.1  1034.25
402  1045
401.9  1036.125
401.8  1030.625
401.7  1057.375
401.6  1070.125
401.5  1021
401.4  1026
401.3  1045.75
401.2  1021.375
401.1  1030.875
401  1039.25
400.9  1045.625
400.8  1025
400.7  1052.125
400.6  1031
400.5  1042.375
400.4  1044.375
400.3  1031.125
400.2  1013
400.1  1086.875
400  1025.375
399.9  1033
399.8  1031.875
399.7  1013.625
399.6  1026.75
399.5  1028.25
399.4  1010.125
399.3  1021.5
399.2  1020
399.1  994.5
399  1031.875
398.9  1015.25
398.8  1001.25
398.7  998.375
398.6  1007.75
398.5  1017.75
398.4  1016
398.3  1017.5
398.2  1008.625
398.1  982.75
398  985
397.9  1008.875
397.8  1016.5
397.7  1000.625
397.6  1004.875
397.5  994.625
397.4  1007.25
397.3  1010.375
397.2  987.875
397.1  991.625
397  1004.375

# Region:            C1s
# Acquisition Date:  09/23/22 12:44:53 UTC
# Analysis Method:   XPS
# Analyzer:          Phoibos 100 R6
# Analyzer Lens:     LargeArea:1.5kV
# Analyzer Slit:     1:0.2x20\B:open
# Scan Mode:         FixedAnalyzerTransmission
# Curves/Scan:       1
# Values/Curve:      151
# Dwell Time:        0.8
# Excitation Energy: 1486.61
# Binding Energy:    295
# Pass Energy:       30
# Bias Voltage:      90
# Detector Voltage:  2600
# Eff. Workfunction: 4.309
# Source:            X-Ray Dummy
# Comment:           
#
# Cycle: 0
# Number of Scans: 4
#
# Cycle: 0, Curve: 0
# Acquisition Date: 09/23/22 12:44:53 UTC
#
# ColumnLabels: energy counts/s
#
295  908.75
294.9  920.625
294.8  916.25
294.7  939.375
294.6  940.9375
294.5  921.25
294.4  890.625
294.3  945.9375
294.2  912.5
294.1  904.6875
294  911.5625
293.9  904.0625
293.8  935
293.7  939.6875
293.6  934.0625
293.5  933.4375
293.4  940
293.3  902.8125
293.2  926.25
293.1  954.6875
293  917.5
292.9  941.5625
292.8  932.1875
292.7  940.9375
292.6  949.6875
292.5  916.5625
292.4  925.9375
292.3  922.5
292.2  951.5625
292.1  930.3125
292  920.625
291.9  893.75
291.8  959.0625
291.7  928.75
291.6  953.4375
291.5  945.9375
291.4  936.5625
291.3  932.1875
291.2  941.875
291.1  937.1875
291  940.3125
290.9  910.3125
290.8  975.625
290.7  934.6875
290.6  929.375
290.5  939.0625
290.4  880.9375
290.3  948.4375
290.2  958.4375
290.1  915
290  955
289.9  971.25
289.8  965.3125
289.7  966.25
289.6  949.6875
289.5  983.4375
289.4  950.9375
289.3  967.5
289.2  984.0625
289.1  961.25
289  963.4375
288.9  970.625
288.8  1002.1875
288.7  986.5625
288.6  987.8125
288.5  985.9375
288.4  992.5
288.3  1020.625
288.2  1061.25
288.1  1040
288  1050.9375
287.9  1046.25
287.8  1057.5
287.7  1056.875
287.6  1081.5625
287.5  1055.9375
287.4  1080.9375
287.3  1050.3125
287.2  1100
287.1  1081.875
287  1115.3125
286.9  1079.0625
286.8  1125.3125
286.7  1079.0625
286.6  1114.6875
286.5  1123.75
286.4  1078.75
286.3  1086.25
286.2  1128.4375
286.1  1083.75
286  1070
285.9  1082.1875
285.8  1094.0625
285.7  1056.875
285.6  1063.125
285.5  1050
285.4  1067.8125
285.3  1025.9375
285.2  1030
285.1  1014.6875
285  1019.375
284.9  1001.875
284.8  992.5
284.7  1010
284.6  982.8125
284.5  961.5625
284.4  985
284.3  962.8125
284.2  922.5
284.1  942.5
284  914.6875
283.9  948.75
283.8  968.125
283.7  934.375
283.6  919.0625
283.5  918.125
283.4  928.125
283.3  954.0625
283.2  922.5
283.1  950.9375
283  937.1875
282.9  918.75
282.8  910.9375
282.7  954.0625
282.6  912.8125
282.5  930
282.4  909.0625
282.3  913.75
282.2  921.25
282.1  933.125
282  910.625
281.9  912.5
281.8  931.25
281.7  892.1875
281.6  915.3125
281.5  935.3125
281.4  940.625
281.3  926.5625
281.2  886.875
281.1  904.375
281  933.125
280.9  918.125
280.8  900.625
280.7  907.1875
280.6  916.5625
280.5  890.3125
280.4  906.875
280.3  914.0625
280.2  924.0625
280.1  938.125
280  966.875

# Region:            In3d
# Acquisition Date:  09/23/22 12:24:39 UTC
# Analysis Method:   XPS
# Analyzer:          Phoibos 100 R6
# Analyzer Lens:     LargeArea:1.5kV
# Analyzer Slit:     1:0.2x20\B:open
# Scan Mode:         FixedAnalyzerTransmission
# Curves/Scan:       1
# Values/Curve:      231
# Dwell Time:        0.8
# Excitation Energy: 1486.61
# Binding Energy:    460
# Pass Energy:       30
# Bias Voltage:      90
# Detector Voltage:  2600
# Eff. Workfunction: 4.309
# Source:            X-Ray Dummy
# Comment:           
#
# Cycle: 0
# Number of Scans: 1
#
# Cycle: 0, Curve: 0
# Acquisition Date: 09/23/22 12:24:39 UTC
#
# ColumnLabels: energy counts/s
#
460  3010
459.9  2875
459.8  2837.5
459.7  2742.5
459.6  2900
459.5  2837.5
459.4  2797.5
459.3  2890
459.2  2947.5
459.1  2773.75
459  2838.75
458.9  2715
458.8  2881.25
458.7  2823.75
458.6  2822.5
458.5  2702.5
458.4  2772.5
458.3  2797.5
458.2  2705
458.1  2625
458  2615
457.9  2755
457.8  2703.75
457.7  2746.25
457.6  2678.75
457.5  2716.25
457.4  2690
457.3  2766.25
457.2  2707.5
457.1  2678.75
457  2750
456.9  2851.25
456.8  2716.25
456.7  2793.75
456.6  2943.75
456.5  2912.5
456.4  2873.75
456.3  2892.5
456.2  2952.5
456.1  3043.75
456  2982.5
455.9  3057.5
455.8  3203.75
455.7  3205
455.6  3281.25
455.5  3406.25
455.4  3488.75
455.3  3528.75
455.2  3616.25
455.1  3787.5
455  3912.5
454.9  4197.5
454.8  4342.5
454.7  4638.75
454.6  4737.5
454.5  5041.25
454.4  5428.75
454.3  5693.75
454.2  6135
454.1  6372.5
454  6965
453.9  7257.5
453.8  7745
453.7  7766.25
453.6  8206.25
453.5  8583.75
453.4  9032.5
453.3  9296.25
453.2  9611.25
453.1  9856.25
453  9951.25
452.9  9963.75
452.8  9855
452.7  9678.75
452.6  9611.25
452.5  9377.5
452.4  9050
452.3  8672.5
452.2  7946.25
452.1  7403.75
452  7002.5
451.9  6191.25
451.8  5722.5
451.7  5177.5
451.6  4781.25
451.5  4235
451.4  3958.75
451.3  3521.25
451.2  3346.25
451.1  3035
451  2885
450.9  2783.75
450.8  2632.5
450.7  2573.75
450.6  2403.75
450.5  2265
450.4  2412.5
450.3  2323.75
450.2  2303.75
450.1  2230
450  2307.5
449.9  2251.25
449.8  2215
449.7  2227.5
449.6  2172.5
449.5  2095
449.4  2211.25
449.3  2153.75
449.2  2121.25
449.1  2328.75
449  2320
448.9  2278.75
448.8  2406.25
448.7  2443.75
448.6  2503.75
448.5  2560
448.4  2651.25
448.3  2816.25
448.2  2937.5
448.1  2910
448  3198.75
447.9  3118.75
447.8  3338.75
447.7  3480
447.6  3703.75
447.5  4002.5
447.4  4335
447.3  4656.25
447.2  4775
447.1  5276.25
447  5512.5
446.9  6230
446.8  6458.75
446.7  6873.75
446.6  7621.25
446.5  7918.75
446.4  8655
446.3  9242.5
446.2  9558.75
446.1  10305
446  10755
445.9  11078.75
445.8  11745
445.7  12190
445.6  12503.75
445.5  12722.5
445.4  12850
445.3  13063.75
445.2  12952.5
445.1  12665
445  12248.75
444.9  11783.75
444.8  11402.5
444.7  10665
444.6  10052.5
444.5  9272.5
444.4  8552.5
444.3  7642.5
444.2  6901.25
444.1  6062.5
444  5555
443.9  4963.75
443.8  4443.75
443.7  4016.25
443.6  3806.25
443.5  3503.75
443.4  3260
443.3  2991.25
443.2  2892.5
443.1  2943.75
443  2697.5
442.9  2618.75
442.8  2472.5
442.7  2363.75
442.6  2450
442.5  2327.5
442.4  2335
442.3  2232.5
442.2  2130
442.1  2056.25
442  2045
441.9  1970
441.8  1952.5
441.7  1947.5
441.6  1920
441.5  1780
441.4  1805
441.3  1847.5
441.2  1875
441.1  1708.75
441  1796.25
440.9  1756.25
440.8  1712.5
440.7  1722.5
440.6  1586.25
440.5  1621.25
440.4  1666.25
440.3  1553.75
440.2  1620
440.1  1602.5
440  1532.5
439.9  1523.75
439.8  1543.75
439.7  1490
439.6  1487.5
439.5  1386.25
439.4  1422.5
439.3  1362.5
439.2  1401.25
439.1  1407.5
439  1351.25
438.9  1301.25
438.8  1326.25
438.7  1325
438.6  1288.75
438.5  1356.25
438.4  1248.75
438.3  1348.75
438.2  1331.25
438.1  1420
438  1335
437.9  1338.75
437.8  1303.75
437.7  1382.5
437.6  1391.25
437.5  1391.25
437.4  1485
437.3  1451.25
437.2  1480
437.1  1480
437  1526.25

# Region:            O1s
# Acquisition Date:  09/23/22 12:52:41 UTC
# Analysis Method:   XPS
# Analyzer:          Phoibos 100 R6
# Analyzer Lens:     LargeArea:1.5kV
# Analyzer Slit:     1:0.2x20\B:open
# Scan Mode:         FixedAnalyzerTransmission
# Curves/Scan:       1
# Values/Curve:      111
# Dwell Time:        0.8
# Excitation Energy: 1486.61
# Binding Energy:    538
# Pass Energy:       30
# Bias Voltage:      90
# Detector Voltage:  2600
# Eff. Workfunction: 4.309
# Source:            X-Ray Dummy
# Comment:           
#
# Cycle: 0
# Number of Scans: 6
#
# Cycle: 0, Curve: 0
# Acquisition Date: 09/23/22 12:52:41 UTC
#
# ColumnLabels: energy counts/s
#
538  3243.9583
537.9  3297.2917
537.8  3302.0833
537.7  3303.9583
537.6  3281.4583
537.5  3318.125
537.4  3290.625
537.3  3308.125
537.2  3264.7917
537.1  3266.875
537  3262.9167
536.9  3252.5
536.8  3301.6667
536.7  3330.625
536.6  3248.75
536.5  3323.9583
536.4  3271.0417
536.3  3302.9167
536.2  3276.6667
536.1  3268.5417
536  3361.4583
535.9  3302.9167
535.8  3263.5417
535.7  3289.375
535.6  3275.4167
535.5  3328.3333
535.4  3314.375
535.3  3355.2083
535.2  3373.5417
535.1  3344.375
535  3421.875
534.9  3376.875
534.8  3395
534.7  3430.4167
534.6  3440.625
534.5  3483.125
534.4  3487.5
534.3  3510.8333
534.2  3507.2917
534.1  3618.9583
534  3616.6667
533.9  3628.125
533.8  3602.2917
533.7  3630.2083
533.6  3711.4583
533.5  3713.9583
533.4  3820.625
533.3  3808.125
533.2  3845.8333
533.1  3906.875
533  3952.0833
532.9  4012.5
532.8  4081.6667
532.7  4147.0833
532.6  4215.2083
532.5  4310.2083
532.4  4390.8333
532.3  4490.2083
532.2  4621.4583
532.1  4674.7917
532  4801.4583
531.9  4929.375
531.8  5003.3333
531.7  5238.5417
531.6  5275
531.5  5430.4167
531.4  5545.625
531.3  5686.4583
531.2  5800.8333
531.1  5789.7917
531  5881.875
530.9  5894.375
530.8  5886.25
530.7  5845
530.6  5725.2083
530.5  5614.1667
530.4  5445.625
530.3  5298.75
530.2  5151.25
530.1  4948.125
530  4708.75
529.9  4556.4583
529.8  4383.5417
529.7  4172.2917
529.6  4036.25
529.5  3882.7083
529.4  3794.7917
529.3  3655.625
529.2  3651.4583
529.1  3541.25
529  3437.5
528.9  3376.875
528.8  3377.2917
528.7  3360
528.6  3279.375
528.5  3299.375
528.4  3251.25
528.3  3282.9167
528.2  3212.2917
528.1  3269.5833
528  3238.75
527.9  3241.6667
527.8  3183.5417
527.7  3210.4167
527.6  3212.2917
527.5  3158.9583
527.4  3200
527.3  3179.1667
527.2  3147.2917
527.1  3179.5833
527  3206.0417

# Region:            Cl2p
# Acquisition Date:  09/23/22 12:36:01 UTC
# Analysis Method:   XPS
# Analyzer:          Phoibos 100 R6
# Analyzer Lens:     LargeArea:1.5kV
# Analyzer Slit:     1:0.2x20\B:open
# Scan Mode:         FixedAnalyzerTransmission
# Curves/Scan:       1
# Values/Curve:      111
# Dwell Time:        0.8
# Excitation Energy: 1486.61
# Binding Energy:    207
# Pass Energy:       30
# Bias Voltage:      90
# Detector Voltage:  2600
# Eff. Workfunction: 4.309
# Source:            X-Ray Dummy
# Comment:           
#
# Cycle: 0
# Number of Scans: 2
#
# Cycle: 0, Curve: 0
# Acquisition Date: 09/23/22 12:36:01 UTC
#
# ColumnLabels: energy counts/s
#
207  928.75
206.9  940
206.8  900
206.7  877.5
206.6  885.625
206.5  884.375
206.4  896.875
206.3  906.25
206.2  855.625
206.1  886.875
206  895.625
205.9  920
205.8  904.375
205.7  927.5
205.6  892.5
205.5  903.75
205.4  889.375
205.3  817.5
205.2  921.25
205.1  900.625
205  934.375
204.9  886.875
204.8  892.5
204.7  936.875
204.6  880.625
204.5  926.875
204.4  899.375
204.3  928.125
204.2  912.5
204.1  916.875
204  861.875
203.9  905.625
203.8  904.375
203.7  928.125
203.6  926.875
203.5  881.25
203.4  908.125
203.3  922.5
203.2  887.5
203.1  869.375
203  924.375
202.9  886.875
202.8  893.75
202.7  950
202.6  940.625
202.5  913.125
202.4  931.875
202.3  941.875
202.2  975
202.1  940.625
202  936.25
201.9  972.5
201.8  1003.125
201.7  982.5
201.6  1016.875
201.5  1012.5
201.4  1006.875
201.3  1053.75
201.2  1033.75
201.1  1064.375
201  1064.375
200.9  1058.75
200.8  1083.75
200.7  1096.25
200.6  1048.125
200.5  1061.25
200.4  1081.875
200.3  1100.625
200.2  1113.75
200.1  1128.125
200  1105.625
199.9  1065
199.8  1131.875
199.7  1104.375
199.6  1102.5
199.5  1128.75
199.4  1148.125
199.3  1160
199.2  1141.25
199.1  1112.5
199  1091.25
198.9  1098.75
198.8  1068.125
198.7  1064.375
198.6  1040
198.5  1036.875
198.4  1014.375
198.3  1010.625
198.2  996.25
198.1  997.5
198  964.375
197.9  965.625
197.8  963.125
197.7  962.5
197.6  973.75
197.5  898.75
197.4  903.75
197.3  901.875
197.2  926.25
197.1  908.75
197  896.25
196.9  908.75
196.8  903.75
196.7  889.375
196.6  914.375
196.5  884.375
196.4  902.5
196.3  946.875
196.2  903.125
196.1  900.625
196  891.25

