# Created by:        SpecsLab Prodigy, Version 4.60.2-r85849 
#
# XY-Serializer Export Settings:
#   Comment Prefix:           #
#   Output meta data:         yes
#   Energy Axis:              Binding Energy
#   Count Rate:               Counts per Second
#   Separate Scan Data:       no
#   Separate Channel Data:    no
#   External Channel Data:    yes
#   Transmission Function:    no
#   ErrorBar:                 no
#   Operation Results:        yes
#   Time Zone Format:         UTC
#
# Group:             Spectrum Group
#
# Region:            C1s
# Acquisition Date:  08/24/22 14:59:26 UTC
# Analysis Method:   XPS
# Analyzer:          Phoibos 100 R6
# Analyzer Lens:     LargeArea:1.5kV
# Analyzer Slit:     1:0.2x20\B:open
# Scan Mode:         FixedAnalyzerTransmission
# Curves/Scan:       1
# Values/Curve:      151
# Dwell Time:        0.8
# Excitation Energy: 1486.61
# Binding Energy:    295
# Pass Energy:       30
# Bias Voltage:      90
# Detector Voltage:  2600
# Eff. Workfunction: 4.309
# Source:            X-Ray Dummy
# Comment:           
#
# Cycle: 0
# Number of Scans: 2
#
# Cycle: 0, Curve: 0
# Acquisition Date: 08/24/22 14:59:26 UTC
#
# ColumnLabels: energy counts/s
#
295  1008.125
294.9  975
294.8  983.75
294.7  995
294.6  1005.625
294.5  1017.5
294.4  940.625
294.3  1003.75
294.2  971.25
294.1  990
294  1027.5
293.9  1003.125
293.8  943.125
293.7  971.875
293.6  968.125
293.5  931.25
293.4  993.75
293.3  973.125
293.2  978.75
293.1  997.5
293  1009.375
292.9  1006.875
292.8  985.625
292.7  958.125
292.6  966.25
292.5  991.25
292.4  953.75
292.3  973.75
292.2  938.75
292.1  961.875
292  992.5
291.9  975
291.8  984.375
291.7  990.625
291.6  998.75
291.5  908.75
291.4  974.375
291.3  1014.375
291.2  921.25
291.1  950.625
291  919.375
290.9  970
290.8  961.875
290.7  1018.125
290.6  1011.875
290.5  957.5
290.4  939.375
290.3  918.125
290.2  983.125
290.1  985.625
290  945.625
289.9  937.5
289.8  994.375
289.7  956.25
289.6  966.875
289.5  933.125
289.4  981.25
289.3  965.625
289.2  975.625
289.1  961.875
289  974.375
288.9  986.875
288.8  969.375
288.7  976.25
288.6  1016.875
288.5  1011.875
288.4  1000.625
288.3  1016.25
288.2  999.375
288.1  934.375
288  1017.5
287.9  940.625
287.8  961.25
287.7  966.25
287.6  944.375
287.5  976.25
287.4  986.25
287.3  994.375
287.2  989.375
287.1  984.375
287  976.875
286.9  993.125
286.8  997.5
286.7  959.375
286.6  993.125
286.5  978.75
286.4  1027.5
286.3  1024.375
286.2  976.875
286.1  1051.875
286  1033.125
285.9  1002.5
285.8  986.25
285.7  973.75
285.6  999.375
285.5  1028.75
285.4  1013.125
285.3  1039.375
285.2  1011.875
285.1  1008.75
285  1060
284.9  988.75
284.8  1002.5
284.7  981.875
284.6  1036.25
284.5  1008.125
284.4  1020.625
284.3  1045.625
284.2  1032.5
284.1  1035
284  988.75
283.9  1038.125
283.8  985.625
283.7  1035.625
283.6  995
283.5  994.375
283.4  1007.5
283.3  963.125
283.2  981.25
283.1  986.875
283  971.25
282.9  985.625
282.8  970.625
282.7  983.75
282.6  968.125
282.5  968.125
282.4  980
282.3  991.25
282.2  966.25
282.1  986.875
282  1005.625
281.9  993.75
281.8  983.75
281.7  996.25
281.6  941.875
281.5  940
281.4  986.25
281.3  961.875
281.2  977.5
281.1  939.375
281  993.125
280.9  937.5
280.8  965
280.7  980.625
280.6  992.5
280.5  991.875
280.4  995
280.3  968.75
280.2  949.375
280.1  968.75
280  1026.25

# Region:            overview
# Acquisition Date:  08/24/22 14:49:23 UTC
# Analysis Method:   XPS
# Analyzer:          Phoibos 100 R6
# Analyzer Lens:     MediumArea:1.5kV
# Analyzer Slit:     1:0.2x20\B:open
# Scan Mode:         FixedAnalyzerTransmission
# Curves/Scan:       1
# Values/Curve:      1205
# Dwell Time:        0.2
# Excitation Energy: 1486.61
# Binding Energy:    1200
# Pass Energy:       50
# Bias Voltage:      90
# Detector Voltage:  2600
# Eff. Workfunction: 4.309
# Source:            X-Ray Dummy
# Comment:           
#
# Cycle: 0
# Number of Scans: 1
#
# Cycle: 0, Curve: 0
# Acquisition Date: 08/24/22 14:49:23 UTC
#
# ColumnLabels: energy counts/s
#
1200  10965
1199  10665
1198  10645
1197  10850
1196  10605
1195  10825
1194  10705
1193  11060
1192  10765
1191  10490
1190  10580
1189  10230
1188  10355
1187  10150
1186  9730
1185  9925
1184  9810
1183  9930
1182  9615
1181  9955
1180  9550
1179  9535
1178  9485
1177  9600
1176  9645
1175  9510
1174  9475
1173  9295
1172  9455
1171  9710
1170  9645
1169  9715
1168  9615
1167  9850
1166  9855
1165  9605
1164  10160
1163  9300
1162  9600
1161  9835
1160  9925
1159  10090
1158  9845
1157  9635
1156  9695
1155  9705
1154  9740
1153  9600
1152  9510
1151  9405
1150  9180
1149  9380
1148  9440
1147  9720
1146  9375
1145  9160
1144  9300
1143  8780
1142  8815
1141  8585
1140  8885
1139  8170
1138  8415
1137  8170
1136  8045
1135  7995
1134  7750
1133  7480
1132  7670
1131  7790
1130  7415
1129  7280
1128  7510
1127  7030
1126  7505
1125  7280
1124  7510
1123  7065
1122  7010
1121  7350
1120  7305
1119  6880
1118  7315
1117  7005
1116  6630
1115  7185
1114  7240
1113  7045
1112  7160
1111  6860
1110  7055
1109  7165
1108  7315
1107  7260
1106  7300
1105  7405
1104  7905
1103  7350
1102  7245
1101  7280
1100  7800
1099  7760
1098  7455
1097  7495
1096  7345
1095  7900
1094  7355
1093  8110
1092  8100
1091  8205
1090  8695
1089  9605
1088  10755
1087  11055
1086  11425
1085  10510
1084  9980
1083  9075
1082  8620
1081  9125
1080  8665
1079  9000
1078  7835
1077  7540
1076  6500
1075  6195
1074  5645
1073  5700
1072  5820
1071  5430
1070  5765
1069  5415
1068  5530
1067  5675
1066  5655
1065  5375
1064  5560
1063  5565
1062  5305
1061  5115
1060  5430
1059  5490
1058  5600
1057  5220
1056  5185
1055  5030
1054  5090
1053  5285
1052  4865
1051  5170
1050  4855
1049  4670
1048  4970
1047  4700
1046  4715
1045  4595
1044  4735
1043  4625
1042  4755
1041  4575
1040  4900
1039  4830
1038  4715
1037  4750
1036  4745
1035  4975
1034  4735
1033  4425
1032  4775
1031  4755
1030  4620
1029  4745
1028  4745
1027  4680
1026  4865
1025  4855
1024  4770
1023  4600
1022  4495
1021  4495
1020  4555
1019  4670
1018  4545
1017  4630
1016  4570
1015  4755
1014  4690
1013  4600
1012  4700
1011  4610
1010  4495
1009  4790
1008  4775
1007  4875
1006  4760
1005  4375
1004  4575
1003  4430
1002  4780
1001  4695
1000  4615
999  4485
998  5065
997  4765
996  4775
995  4910
994  4840
993  5035
992  5095
991  4895
990  4810
989  4875
988  4825
987  5190
986  4585
985  4570
984  4900
983  4540
982  4665
981  4805
980  4630
979  4780
978  4960
977  4935
976  5865
975  5775
974  5600
973  5215
972  5085
971  4925
970  4295
969  4475
968  4535
967  4185
966  4285
965  4190
964  4095
963  4405
962  4290
961  4275
960  4020
959  4210
958  4265
957  3875
956  4145
955  4030
954  4180
953  4140
952  4310
951  3980
950  4180
949  4005
948  4050
947  4150
946  4425
945  3955
944  4035
943  4050
942  4345
941  4195
940  4145
939  3920
938  4040
937  4185
936  4140
935  3995
934  4215
933  4345
932  4125
931  4345
930  4400
929  4290
928  4210
927  4190
926  4225
925  3980
924  4185
923  4305
922  4055
921  4115
920  4070
919  4170
918  4030
917  4285
916  4345
915  4330
914  3905
913  4305
912  4080
911  3950
910  4270
909  4310
908  4290
907  4390
906  4145
905  4285
904  4300
903  4160
902  4080
901  4225
900  4495
899  4445
898  4320
897  4085
896  4345
895  4200
894  4315
893  4130
892  3945
891  4175
890  4160
889  4145
888  4105
887  4220
886  4535
885  3985
884  4305
883  4365
882  3855
881  4170
880  4140
879  4330
878  4095
877  4020
876  4195
875  4380
874  4095
873  4265
872  4155
871  4330
870  4165
869  4205
868  4035
867  4195
866  4360
865  4180
864  4200
863  4380
862  4335
861  3990
860  4325
859  4055
858  4205
857  4030
856  4360
855  4190
854  4115
853  4195
852  4230
851  4145
850  4380
849  4270
848  4420
847  4335
846  4260
845  4305
844  4470
843  4480
842  4385
841  4295
840  4370
839  4280
838  4250
837  4400
836  4365
835  4440
834  4455
833  4655
832  4635
831  4700
830  4845
829  4650
828  4580
827  4825
826  4795
825  4645
824  4325
823  4650
822  4540
821  4400
820  4350
819  4360
818  4570
817  4200
816  4535
815  4585
814  4380
813  4430
812  4480
811  4255
810  4410
809  4035
808  4360
807  4005
806  4240
805  4335
804  4240
803  4125
802  4055
801  4120
800  4395
799  4600
798  4350
797  4275
796  4520
795  4305
794  4265
793  4105
792  4465
791  4295
790  4120
789  4080
788  4140
787  4415
786  4215
785  4270
784  4115
783  4525
782  4135
781  4430
780  4520
779  4165
778  4340
777  4475
776  4260
775  4230
774  4295
773  4160
772  4395
771  4055
770  4470
769  4395
768  4395
767  4480
766  4335
765  4565
764  4465
763  4505
762  4505
761  4545
760  4670
759  4310
758  4550
757  4710
756  4310
755  4530
754  4275
753  4530
752  4365
751  4245
750  4485
749  4380
748  4645
747  4575
746  4300
745  4550
744  4595
743  4585
742  4670
741  4370
740  4465
739  4625
738  4425
737  4570
736  4480
735  4380
734  4675
733  4560
732  4565
731  4720
730  4255
729  4715
728  4800
727  4665
726  4580
725  4560
724  4640
723  4690
722  4755
721  4825
720  4900
719  4860
718  5070
717  4960
716  5160
715  4940
714  5015
713  4710
712  4895
711  4550
710  4975
709  5190
708  4845
707  5790
706  6285
705  6735
704  6740
703  6205
702  5580
701  5045
700  4935
699  4460
698  4690
697  4690
696  4550
695  4960
694  4720
693  4625
692  4575
691  4610
690  4465
689  4395
688  4435
687  4565
686  4605
685  4915
684  4695
683  4515
682  4770
681  4780
680  4395
679  4745
678  4865
677  4610
676  4465
675  4600
674  4640
673  4525
672  4775
671  4975
670  5400
669  6540
668  7140
667  8515
666  8645
665  7175
664  6030
663  5095
662  4835
661  5055
660  4335
659  4705
658  4255
657  4490
656  4110
655  4370
654  4085
653  3890
652  3985
651  3915
650  3820
649  4000
648  3890
647  3650
646  3975
645  3695
644  4300
643  3875
642  3815
641  3780
640  3765
639  3880
638  3750
637  4035
636  3980
635  3725
634  3590
633  3900
632  3920
631  3565
630  3945
629  3755
628  3625
627  3835
626  3815
625  4050
624  3885
623  3990
622  3985
621  3665
620  4065
619  3975
618  3815
617  3680
616  3970
615  3875
614  3925
613  3645
612  4295
611  4130
610  4005
609  4015
608  4025
607  3950
606  3920
605  4090
604  4040
603  4130
602  4115
601  3950
600  4125
599  4110
598  3850
597  4125
596  4035
595  4070
594  4410
593  4160
592  4250
591  4310
590  4095
589  4215
588  4085
587  4160
586  4045
585  3855
584  3720
583  4330
582  4070
581  4015
580  4140
579  4135
578  4110
577  4010
576  4130
575  4410
574  4385
573  4400
572  4360
571  4350
570  4545
569  4160
568  4100
567  4220
566  4295
565  4360
564  4345
563  4140
562  4330
561  4265
560  4260
559  4370
558  4245
557  4270
556  4350
555  4465
554  4420
553  4250
552  4520
551  4750
550  4370
549  4670
548  4465
547  4530
546  4535
545  4425
544  4090
543  4275
542  4045
541  4340
540  4205
539  4135
538  4125
537  3990
536  4265
535  4290
534  4445
533  5190
532  6585
531  8465
530  7490
529  5385
528  4190
527  4015
526  4040
525  3895
524  4145
523  4300
522  4115
521  4490
520  4455
519  4450
518  4175
517  4260
516  4260
515  3945
514  4250
513  3875
512  4210
511  4315
510  4170
509  4090
508  4080
507  4185
506  4080
505  4155
504  3975
503  4095
502  4015
501  4370
500  4085
499  4065
498  4335
497  4680
496  5170
495  4925
494  4330
493  4095
492  4280
491  4365
490  4315
489  4630
488  4990
487  5430
486  5160
485  4535
484  4015
483  4120
482  3995
481  3955
480  4060
479  4095
478  4375
477  4065
476  4275
475  4255
474  4315
473  4500
472  4130
471  4170
470  4375
469  4245
468  4740
467  4255
466  4315
465  4395
464  4670
463  4425
462  4320
461  4530
460  4080
459  3875
458  3810
457  4285
456  4655
455  6095
454  10085
453  15760
452  13620
451  6730
450  3795
449  3535
448  4590
447  8675
446  16640
445  20850
444  13150
443  5440
442  3460
441  2830
440  2440
439  2060
438  2105
437  2280
436  2715
435  3240
434  2895
433  2295
432  1865
431  1730
430  1535
429  1550
428  1450
427  1400
426  1515
425  1480
424  1295
423  1485
422  1320
421  1505
420  1410
419  1325
418  1375
417  1450
416  1390
415  1370
414  1285
413  1240
412  1290
411  1415
410  1465
409  1130
408  1460
407  1285
406  1295
405  1470
404  1440
403  1175
402  1275
401  1360
400  1285
399  1240
398  1405
397  1305
396  1360
395  1380
394  1460
393  1255
392  1365
391  1355
390  1660
389  1510
388  1445
387  1395
386  1365
385  1360
384  1435
383  1440
382  1605
381  1415
380  1415
379  1450
378  1390
377  1355
376  1575
375  1510
374  1455
373  1310
372  1340
371  1265
370  1180
369  1390
368  1235
367  1340
366  1300
365  1290
364  1365
363  1170
362  1305
361  1220
360  1480
359  1205
358  1320
357  1390
356  1370
355  1290
354  1290
353  1190
352  1375
351  1260
350  1225
349  1425
348  1540
347  1510
346  1350
345  1260
344  1295
343  1145
342  1330
341  1165
340  1295
339  1285
338  1125
337  1535
336  1310
335  1230
334  1290
333  1305
332  1180
331  1255
330  1055
329  1300
328  1180
327  1280
326  1225
325  1185
324  1270
323  1380
322  1390
321  1385
320  1400
319  1270
318  1275
317  1200
316  1370
315  1335
314  1305
313  1435
312  1195
311  1415
310  1265
309  1335
308  1335
307  1395
306  1250
305  1285
304  1350
303  1285
302  1145
301  1335
300  1240
299  1230
298  1535
297  1250
296  1405
295  1310
294  1325
293  1270
292  1195
291  1435
290  1350
289  1295
288  1330
287  1305
286  1255
285  1445
284  1315
283  1335
282  1220
281  1245
280  1390
279  1310
278  1375
277  1450
276  1445
275  1295
274  1195
273  1325
272  1430
271  1290
270  1240
269  1215
268  1355
267  1385
266  1425
265  1275
264  1300
263  1405
262  1335
261  1400
260  1340
259  1260
258  1260
257  1325
256  1345
255  1395
254  1430
253  1260
252  1375
251  1325
250  1425
249  1320
248  1485
247  1405
246  1335
245  1410
244  1425
243  1315
242  1410
241  1420
240  1450
239  1450
238  1460
237  1475
236  1480
235  1450
234  1415
233  1315
232  1370
231  1485
230  1390
229  1270
228  1585
227  1385
226  1415
225  1410
224  1375
223  1555
222  1350
221  1320
220  1265
219  1460
218  1180
217  1390
216  1340
215  1280
214  1290
213  1390
212  1340
211  1325
210  1405
209  1325
208  1450
207  1480
206  1250
205  1400
204  1315
203  1350
202  1490
201  1405
200  1310
199  1470
198  1425
197  1315
196  1300
195  1495
194  1535
193  1385
192  1415
191  1400
190  1380
189  1470
188  1480
187  1345
186  1405
185  1455
184  1455
183  1380
182  1715
181  1495
180  1475
179  1380
178  1345
177  1520
176  1395
175  1545
174  1405
173  1465
172  1325
171  1555
170  1340
169  1460
168  1460
167  1345
166  1415
165  1445
164  1485
163  1365
162  1415
161  1380
160  1530
159  1315
158  1530
157  1450
156  1475
155  1480
154  1435
153  1450
152  1665
151  1485
150  1575
149  1375
148  1505
147  1440
146  1505
145  1440
144  1705
143  1390
142  1535
141  1410
140  1505
139  1595
138  1565
137  1460
136  1585
135  1485
134  1500
133  1540
132  1670
131  1565
130  1550
129  1470
128  1520
127  1520
126  1830
125  1785
124  1620
123  1580
122  1640
121  1635
120  1615
119  1350
118  1325
117  1450
116  1365
115  1435
114  1460
113  1580
112  1505
111  1370
110  1385
109  1545
108  1470
107  1475
106  1530
105  1515
104  1555
103  1405
102  1495
101  1665
100  1635
99  1435
98  1605
97  1605
96  1585
95  1790
94  1540
93  1755
92  1735
91  1565
90  1660
89  1535
88  1825
87  1955
86  1825
85  1800
84  1815
83  1875
82  1775
81  1745
80  1700
79  1645
78  1700
77  1600
76  1730
75  1540
74  1670
73  1535
72  1410
71  1365
70  1220
69  1240
68  1405
67  1280
66  1250
65  1280
64  1205
63  1120
62  1260
61  1120
60  1255
59  965
58  970
57  1245
56  1140
55  980
54  1150
53  1200
52  1115
51  1015
50  1050
49  1075
48  1105
47  1130
46  1025
45  1100
44  1205
43  1065
42  1210
41  1190
40  1110
39  1080
38  1255
37  1160
36  1120
35  1170
34  1145
33  1110
32  1135
31  1070
30  1135
29  1280
28  1490
27  1300
26  1305
25  1200
24  1135
23  1105
22  1350
21  1795
20  3035
19  4325
18  3915
17  2140
16  1220
15  975
14  785
13  910
12  805
11  1010
10  930
9  1145
8  1050
7  955
6  920
5  855
4  795
3  630
2  700
1  630
-2.2737368e-013  655
-1  585
-2  655
-3  770
-4  675

# Region:            In3d
# Acquisition Date:  08/24/22 15:02:34 UTC
# Analysis Method:   XPS
# Analyzer:          Phoibos 100 R6
# Analyzer Lens:     LargeArea:1.5kV
# Analyzer Slit:     1:0.2x20\B:open
# Scan Mode:         FixedAnalyzerTransmission
# Curves/Scan:       1
# Values/Curve:      231
# Dwell Time:        0.8
# Excitation Energy: 1486.61
# Binding Energy:    460
# Pass Energy:       30
# Bias Voltage:      90
# Detector Voltage:  2600
# Eff. Workfunction: 4.309
# Source:            X-Ray Dummy
# Comment:           
#
# Cycle: 0
# Number of Scans: 2
#
# Cycle: 0, Curve: 0
# Acquisition Date: 08/24/22 15:02:34 UTC
#
# ColumnLabels: energy counts/s
#
460  3340
459.9  3356.25
459.8  3381.25
459.7  3360
459.6  3301.875
459.5  3415.625
459.4  3380.625
459.3  3290
459.2  3280.625
459.1  3344.375
459  3324.375
458.9  3215.625
458.8  3240
458.7  3237.5
458.6  3271.25
458.5  3249.375
458.4  3313.75
458.3  3238.75
458.2  3281.875
458.1  3293.125
458  3278.75
457.9  3267.5
457.8  3350.625
457.7  3297.5
457.6  3278.75
457.5  3218.125
457.4  3251.25
457.3  3365
457.2  3243.75
457.1  3298.75
457  3376.875
456.9  3321.25
456.8  3351.25
456.7  3375
456.6  3328.125
456.5  3446.875
456.4  3474.375
456.3  3520
456.2  3699.375
456.1  3610
456  3697.5
455.9  3856.25
455.8  3773.75
455.7  3937.5
455.6  4021.25
455.5  4098.125
455.4  4161.875
455.3  4477.5
455.2  4516.25
455.1  4724.375
455  4977.5
454.9  5277.5
454.8  5504.375
454.7  5837.5
454.6  6085
454.5  6394.375
454.4  6835.625
454.3  7212.5
454.2  7729.375
454.1  8334.375
454  8763.125
453.9  9283.75
453.8  9826.25
453.7  10448.75
453.6  10846.875
453.5  11493.125
453.4  12274.375
453.3  12602.5
453.2  12782.5
453.1  13472.5
453  13650.625
452.9  13856.25
452.8  13956.25
452.7  13867.5
452.6  13711.875
452.5  13195
452.4  12983.125
452.3  12400
452.2  11840.625
452.1  11120.625
452  10193.75
451.9  9347.5
451.8  8533.75
451.7  7807.5
451.6  7195
451.5  6468.125
451.4  5680
451.3  5255.625
451.2  4783.125
451.1  4386.25
451  4085
450.9  3753.75
450.8  3566.25
450.7  3448.125
450.6  3236.875
450.5  3133.125
450.4  3063.75
450.3  2983.125
450.2  2949.375
450.1  2873.75
450  2746.25
449.9  2790
449.8  2764.375
449.7  2796.25
449.6  2701.875
449.5  2729.375
449.4  2818.75
449.3  2768.75
449.2  2860
449.1  2817.5
449  2822.5
448.9  2936.875
448.8  2925.625
448.7  2998.75
448.6  3096.875
448.5  3063.75
448.4  3234.375
448.3  3339.375
448.2  3506.875
448.1  3657.5
448  3859.375
447.9  3942.5
447.8  4218.75
447.7  4441.25
447.6  4720
447.5  5025
447.4  5319.375
447.3  5790
447.2  6168.75
447.1  6560
447  7221.875
446.9  7846.25
446.8  8370
446.7  8847.5
446.6  9594.375
446.5  10394.375
446.4  11216.25
446.3  11918.125
446.2  12746.875
446.1  13577.5
446  14419.375
445.9  15267.5
445.8  15804.375
445.7  16589.375
445.6  17210
445.5  17621.25
445.4  18011.875
445.3  18260.625
445.2  18183.75
445.1  18255
445  17828.125
444.9  17338.125
444.8  16644.375
444.7  15973.125
444.6  14906.875
444.5  13990
444.4  12528.75
444.3  11600
444.2  10588.125
444.1  9353.75
444  8243.125
443.9  7516.875
443.8  6677.5
443.7  5951.25
443.6  5540
443.5  4958.75
443.4  4544.375
443.3  4260
443.2  4089.375
443.1  3840.625
443  3625
442.9  3470
442.8  3358.125
442.7  3300
442.6  3157.5
442.5  3076.25
442.4  2930.625
442.3  2797.5
442.2  2730
442.1  2700
442  2608.75
441.9  2585
441.8  2526.25
441.7  2425.625
441.6  2381.25
441.5  2285.625
441.4  2288.125
441.3  2243.125
441.2  2181.875
441.1  2200.625
441  2150
440.9  2065
440.8  2113.125
440.7  2038.125
440.6  2041.25
440.5  2036.25
440.4  2019.375
440.3  1965.625
440.2  1866.875
440.1  1910.625
440  1790.625
439.9  1908.125
439.8  1789.375
439.7  1754.375
439.6  1753.75
439.5  1725
439.4  1706.25
439.3  1643.75
439.2  1704.375
439.1  1630
439  1593.75
438.9  1606.25
438.8  1580.625
438.7  1586.25
438.6  1608.75
438.5  1537.5
438.4  1582.5
438.3  1572.5
438.2  1612.5
438.1  1571.875
438  1573.125
437.9  1566.875
437.8  1623.125
437.7  1632.5
437.6  1630.625
437.5  1635
437.4  1668.125
437.3  1748.75
437.2  1788.75
437.1  1771.875
437  1876.875

# Region:            Sn3d
# Acquisition Date:  08/24/22 15:05:42 UTC
# Analysis Method:   XPS
# Analyzer:          Phoibos 100 R6
# Analyzer Lens:     LargeArea:1.5kV
# Analyzer Slit:     1:0.2x20\B:open
# Scan Mode:         FixedAnalyzerTransmission
# Curves/Scan:       1
# Values/Curve:      231
# Dwell Time:        0.8
# Excitation Energy: 1486.61
# Binding Energy:    503
# Pass Energy:       30
# Bias Voltage:      90
# Detector Voltage:  2600
# Eff. Workfunction: 4.309
# Source:            X-Ray Dummy
# Comment:           
#
# Cycle: 0
# Number of Scans: 2
#
# Cycle: 0, Curve: 0
# Acquisition Date: 08/24/22 15:05:42 UTC
#
# ColumnLabels: energy counts/s
#
503  3503.125
502.9  3496.25
502.8  3491.25
502.7  3479.375
502.6  3558.75
502.5  3394.375
502.4  3550
502.3  3536.875
502.2  3455
502.1  3600
502  3533.75
501.9  3568.75
501.8  3551.25
501.7  3590.625
501.6  3571.25
501.5  3577.5
501.4  3608.125
501.3  3633.125
501.2  3521.25
501.1  3506.875
501  3566.875
500.9  3436.25
500.8  3424.375
500.7  3534.375
500.6  3503.75
500.5  3508.125
500.4  3492.5
500.3  3645.625
500.2  3563.75
500.1  3545.625
500  3518.125
499.9  3520.625
499.8  3497.5
499.7  3579.375
499.6  3440.625
499.5  3477.5
499.4  3483.125
499.3  3515
499.2  3494.375
499.1  3545.625
499  3546.875
498.9  3587.5
498.8  3511.875
498.7  3561.875
498.6  3607.5
498.5  3597.5
498.4  3534.375
498.3  3537.5
498.2  3551.25
498.1  3590
498  3706.875
497.9  3675
497.8  3586.875
497.7  3768.125
497.6  3770
497.5  3736.25
497.4  3780
497.3  3838.125
497.2  3901.875
497.1  3905
497  3965
496.9  4001.25
496.8  4014.375
496.7  4033.75
496.6  4041.25
496.5  4140
496.4  4211.875
496.3  4143.75
496.2  4400
496.1  4255
496  4291.25
495.9  4361.25
495.8  4340
495.7  4409.375
495.6  4301.875
495.5  4286.875
495.4  4291.875
495.3  4241.875
495.2  4260
495.1  4256.25
495  4188.125
494.9  4174.375
494.8  4134.375
494.7  4113.125
494.6  4045.625
494.5  3944.375
494.4  3872.5
494.3  3885
494.2  3746.875
494.1  3685
494  3708.75
493.9  3605.625
493.8  3662.5
493.7  3485
493.6  3538.125
493.5  3545.625
493.4  3533.75
493.3  3427.5
493.2  3481.25
493.1  3439.375
493  3490.625
492.9  3480
492.8  3477.5
492.7  3425.625
492.6  3426.25
492.5  3463.75
492.4  3541.25
492.3  3376.875
492.2  3381.875
492.1  3382.5
492  3445.625
491.9  3397.5
491.8  3376.875
491.7  3438.75
491.6  3471.25
491.5  3435
491.4  3333.75
491.3  3404.375
491.2  3409.375
491.1  3346.875
491  3441.875
490.9  3380.625
490.8  3532.5
490.7  3460
490.6  3413.125
490.5  3401.25
490.4  3480.625
490.3  3522.5
490.2  3526.25
490.1  3491.25
490  3604.375
489.9  3556.875
489.8  3626.25
489.7  3576.875
489.6  3539.375
489.5  3616.25
489.4  3711.25
489.3  3683.75
489.2  3801.875
489.1  3699.375
489  3850.625
488.9  3880.625
488.8  3945
488.7  3969.375
488.6  4090
488.5  4066.25
488.4  4165.625
488.3  4133.75
488.2  4155
488.1  4249.375
488  4400
487.9  4394.375
487.8  4587.5
487.7  4473.125
487.6  4511.875
487.5  4603.75
487.4  4569.375
487.3  4723.125
487.2  4610
487.1  4625
487  4658.125
486.9  4670.625
486.8  4559.375
486.7  4551.875
486.6  4470.625
486.5  4390.625
486.4  4395
486.3  4339.375
486.2  4170
486.1  4148.75
486  4000.625
485.9  3917.5
485.8  3850.625
485.7  3791.875
485.6  3808.125
485.5  3763.75
485.4  3685
485.3  3492.5
485.2  3595.625
485.1  3601.875
485  3563.75
484.9  3405.625
484.8  3544.375
484.7  3446.25
484.6  3463.125
484.5  3455
484.4  3377.5
484.3  3395.625
484.2  3391.875
484.1  3326.25
484  3340
483.9  3393.125
483.8  3343.125
483.7  3322.5
483.6  3385.625
483.5  3393.125
483.4  3383.75
483.3  3303.125
483.2  3360.625
483.1  3365
483  3388.125
482.9  3373.75
482.8  3423.75
482.7  3340
482.6  3277.5
482.5  3383.125
482.4  3349.375
482.3  3320
482.2  3386.875
482.1  3343.125
482  3385
481.9  3449.375
481.8  3386.25
481.7  3446.875
481.6  3384.375
481.5  3366.25
481.4  3386.25
481.3  3360.625
481.2  3354.375
481.1  3358.125
481  3351.25
480.9  3347.5
480.8  3368.75
480.7  3352.5
480.6  3410.625
480.5  3388.125
480.4  3315.625
480.3  3398.125
480.2  3331.25
480.1  3270.625
480  3410.625

# Region:            O1s
# Acquisition Date:  08/24/22 15:13:13 UTC
# Analysis Method:   XPS
# Analyzer:          Phoibos 100 R6
# Analyzer Lens:     LargeArea:1.5kV
# Analyzer Slit:     1:0.2x20\B:open
# Scan Mode:         FixedAnalyzerTransmission
# Curves/Scan:       1
# Values/Curve:      111
# Dwell Time:        0.8
# Excitation Energy: 1486.61
# Binding Energy:    538
# Pass Energy:       30
# Bias Voltage:      90
# Detector Voltage:  2600
# Eff. Workfunction: 4.309
# Source:            X-Ray Dummy
# Comment:           
#
# Cycle: 0
# Number of Scans: 6
#
# Cycle: 0, Curve: 0
# Acquisition Date: 08/24/22 15:13:13 UTC
#
# ColumnLabels: energy counts/s
#
538  3732.2917
537.9  3777.0833
537.8  3741.4583
537.7  3759.5833
537.6  3718.3333
537.5  3731.25
537.4  3706.25
537.3  3764.1667
537.2  3724.375
537.1  3716.4583
537  3719.5833
536.9  3767.0833
536.8  3779.1667
536.7  3761.4583
536.6  3700.2083
536.5  3679.5833
536.4  3800
536.3  3712.5
536.2  3750.8333
536.1  3691.0417
536  3751.0417
535.9  3721.0417
535.8  3732.9167
535.7  3710.4167
535.6  3681.25
535.5  3728.5417
535.4  3703.75
535.3  3774.7917
535.2  3685.4167
535.1  3752.5
535  3766.6667
534.9  3760.625
534.8  3746.4583
534.7  3777.7083
534.6  3757.0833
534.5  3749.5833
534.4  3759.7917
534.3  3814.1667
534.2  3935.4167
534.1  3866.0417
534  3926.0417
533.9  3922.2917
533.8  3984.7917
533.7  4072.7083
533.6  4025
533.5  4060
533.4  4131.875
533.3  4131.4583
533.2  4240.8333
533.1  4336.25
533  4405.625
532.9  4475.625
532.8  4646.0417
532.7  4689.1667
532.6  4844.5833
532.5  4959.5833
532.4  5120.2083
532.3  5227.7083
532.2  5398.9583
532.1  5555.625
532  5816.25
531.9  5973.3333
531.8  6163.5417
531.7  6464.7917
531.6  6591.6667
531.5  6833.9583
531.4  7026.6667
531.3  7221.25
531.2  7495.4167
531.1  7501.4583
531  7693.75
530.9  7756.0417
530.8  7790.4167
530.7  7698.125
530.6  7617.9167
530.5  7611.6667
530.4  7428.75
530.3  7161.0417
530.2  6970.4167
530.1  6716.0417
530  6396.25
529.9  6060
529.8  5800.8333
529.7  5420.4167
529.6  5270.8333
529.5  4939.7917
529.4  4769.7917
529.3  4569.5833
529.2  4412.7083
529.1  4271.0417
529  4118.75
528.9  4000.625
528.8  3987.2917
528.7  3820.8333
528.6  3844.375
528.5  3826.4583
528.4  3766.0417
528.3  3743.5417
528.2  3743.75
528.1  3655.625
528  3612.0833
527.9  3614.7917
527.8  3656.875
527.7  3641.4583
527.6  3601.6667
527.5  3637.5
527.4  3596.6667
527.3  3601.6667
527.2  3593.75
527.1  3595.8333
527  3590.625

